[Measurement conditions]
Sample identification,
Comment - 1,"Configuration=Parallel Beam for 4inch holder, Owner=MRD, Creation date=2012/03/27 14:08:09"
Comment - 2,"Goniometer=PW3050/65 (Theta/2Theta); Minimum step size 2Theta:0.0001; Minimum step size Omega:0.0001"
Comment - 3,"Sample stage=MRD Cradle; Minimum step size Phi:0.01; Minimum step size Chi:0.01; Minimum step size X:0.01; Minimum step size Y:0.01; Minimum step size Z:0.001"
Comment - 4,"Diffractometer system=XPERT-PRO"
Comment - 5,"Measurement program=C:\PANalytical\Data Collector\Programs\Reflectivity_Batch.xrdmp, Created identifier={007932df-34e3-4485-9cdc-ce5737d00380}, Created by=User-1, Id=User-1, Creation date=2012/04/06 17:50:18, Modified identifier={70CA96BD-211F-4716-ACCD-1F5C87159915}, Modified by=MRD, Id=WL:DESKTOP-LQ4LR9T:MRD, Modification date=2026/02/02 13:59:34"
Comment - 6,"Fine Calibration Offset for 2Theta = 0.0008 deg"
Comment - 7,"Batch program=C:\PANalytical\Data Collector\Programs\Reflectivity_Batch_4inch.xrdmp, Created identifier={960d4441-9b31-4165-bf03-2a9b383547c1}, Created by=User-1, Id=User-1, Creation date=2012/04/06 17:52:19, Modified identifier={1DDEFD67-F033-44A2-A541-9D9449C44B64}, Modified by=MRD, Id=WL:DESKTOP-LQ4LR9T:MRD, Modification date=2026/01/14 13:23:43"
Anode material,Cu
K-Alpha1 wavelength,1.5405980
K-Alpha2 wavelength,1.5444260
Ratio K-Alpha2/K-Alpha1,0.000
Monochromator used,YES
Generator voltage, 45
Tube current, 40
File date and time,02/2/2026 14:19
Unit cell,
h k l, 0 0 0
Scan axis,Omega-2Theta
Scan range,-0.10000,6.00000
Scan step size,0.0020000
Omega offset,0.0000
No. of points, 3050
Scan type,CONTINUOUS
Phi,0.00
Psi,-0.49
X,0.00
Y,0.00
Z,9.329
Time per step,2.00
[Scan points]
Angle, TimePerStep, Intensity, ESD
-0.09900, 2.00, 0.0, 0.0000
-0.09700, 2.00, 0.0, 0.0000
-0.09500, 2.00, 0.0, 0.0000
-0.09300, 2.00, 0.0, 0.0000
-0.09100, 2.00, 0.0, 0.0000
-0.08900, 2.00, 0.0, 0.0000
-0.08700, 2.00, 0.0, 0.0000
-0.08500, 2.00, 0.0, 0.0000
-0.08300, 2.00, 1.0, 1.0000
-0.08100, 2.00, 0.0, 0.0000
-0.07900, 2.00, 0.0, 0.0000
-0.07700, 2.00, 0.0, 0.0000
-0.07500, 2.00, 0.0, 0.0000
-0.07300, 2.00, 0.0, 0.0000
-0.07100, 2.00, 0.0, 0.0000
-0.06900, 2.00, 0.0, 0.0000
-0.06700, 2.00, 1.0, 1.0000
-0.06500, 2.00, 0.0, 0.0000
-0.06300, 2.00, 1.0, 1.0000
-0.06100, 2.00, 0.0, 0.0000
-0.05900, 2.00, 0.0, 0.0000
-0.05700, 2.00, 0.0, 0.0000
-0.05500, 2.00, 0.0, 0.0000
-0.05300, 2.00, 3.0, 1.7321
-0.05100, 2.00, 2.0, 1.4142
-0.04900, 2.00, 0.0, 0.0000
-0.04700, 2.00, 0.0, 0.0000
-0.04500, 2.00, 0.0, 0.0000
-0.04300, 2.00, 0.0, 0.0000
-0.04100, 2.00, 0.0, 0.0000
-0.03900, 2.00, 0.0, 0.0000
-0.03700, 2.00, 0.0, 0.0000
-0.03500, 2.00, 0.0, 0.0000
-0.03300, 2.00, 1.0, 1.0000
-0.03100, 2.00, 1.0, 1.0000
-0.02900, 2.00, 2.0, 1.4142
-0.02700, 2.00, 1.0, 1.0000
-0.02500, 2.00, 5.0, 2.2361
-0.02300, 2.00, 4.0, 2.0000
-0.02100, 2.00, 2.0, 1.4142
-0.01900, 2.00, 11.0, 3.3166
-0.01700, 2.00, 8.0, 2.8284
-0.01500, 2.00, 18.0, 4.2426
-0.01300, 2.00, 140.0, 11.8322
-0.01100, 2.00, 751.0, 27.4044
-0.00900, 2.00, 4469.0, 66.8506
-0.00700, 2.00, 25446.0, 159.5180
-0.00500, 2.00, 128356.0, 358.2681
-0.00300, 2.00, 525836.0, 725.1455
-0.00100, 2.00, 1459197.0, 10320.9196
0.00100, 2.00, 3005045.0, 14811.0866
0.00300, 2.00, 4067560.0, 17231.7115
0.00500, 2.00, 3837683.0, 16737.7077
0.00700, 2.00, 2970808.0, 14726.4722
0.00900, 2.00, 2022830.0, 12151.8143
0.01100, 2.00, 1301809.0, 9748.4387
0.01300, 2.00, 861400.0, 7929.8298
0.01500, 2.00, 688653.0, 829.8512
0.01700, 2.00, 585164.0, 764.9601
0.01900, 2.00, 555955.0, 745.6239
0.02100, 2.00, 560547.0, 748.6969
0.02300, 2.00, 584467.0, 764.5044
0.02500, 2.00, 616064.0, 784.8974
0.02700, 2.00, 654148.0, 808.7942
0.02900, 2.00, 695130.0, 833.7446
0.03100, 2.00, 739213.0, 859.7750
0.03300, 2.00, 783271.0, 885.0260
0.03500, 2.00, 827867.0, 909.8720
0.03700, 2.00, 869913.0, 932.6913
0.03900, 2.00, 913825.0, 955.9419
0.04100, 2.00, 955136.0, 977.3106
0.04300, 2.00, 998151.0, 999.0751
0.04500, 2.00, 956957.0, 8358.1015
0.04700, 2.00, 1002363.0, 8554.0925
0.04900, 2.00, 1042586.0, 8724.0345
0.05100, 2.00, 1068793.0, 8833.0000
0.05300, 2.00, 1107264.0, 8990.5657
0.05500, 2.00, 1148436.0, 9156.1907
0.05700, 2.00, 1199463.0, 9357.3927
0.05900, 2.00, 1211654.0, 9404.8255
0.06100, 2.00, 1246183.0, 9537.8907
0.06300, 2.00, 1275164.0, 9648.1590
0.06500, 2.00, 1321519.0, 9821.9594
0.06700, 2.00, 1334002.0, 9868.2393
0.06900, 2.00, 1380649.0, 10039.2917
0.07100, 2.00, 1412915.0, 10155.9241
0.07300, 2.00, 1461971.0, 10330.7252
0.07500, 2.00, 1473213.0, 10370.3688
0.07700, 2.00, 1510662.0, 10501.3488
0.07900, 2.00, 1539570.0, 10601.3494
0.08100, 2.00, 1561689.0, 10677.2326
0.08300, 2.00, 1598919.0, 10803.7534
0.08500, 2.00, 1640675.0, 10943.9150
0.08700, 2.00, 1669437.0, 11039.4248
0.08900, 2.00, 1678635.0, 11069.7947
0.09100, 2.00, 1727983.0, 11231.3294
0.09300, 2.00, 1742583.0, 11278.6772
0.09500, 2.00, 1780397.0, 11400.3939
0.09700, 2.00, 1779302.0, 11396.8876
0.09900, 2.00, 1824416.0, 11540.4665
0.10100, 2.00, 1850112.0, 11621.4533
0.10300, 2.00, 1877925.0, 11708.4809
0.10500, 2.00, 1872450.0, 11691.4007
0.10700, 2.00, 1896686.0, 11766.8211
0.10900, 2.00, 1919024.0, 11835.9094
0.11100, 2.00, 1948151.0, 11925.3940
0.11300, 2.00, 1990272.0, 12053.6242
0.11500, 2.00, 1995090.0, 12068.2049
0.11700, 2.00, 2010639.0, 12115.1412
0.11900, 2.00, 2055534.0, 12249.6523
0.12100, 2.00, 2062980.0, 12271.8189
0.12300, 2.00, 2092545.0, 12359.4411
0.12500, 2.00, 2128534.0, 12465.2710
0.12700, 2.00, 2100721.0, 12383.5630
0.12900, 2.00, 2152989.0, 12536.6741
0.13100, 2.00, 2149704.0, 12527.1063
0.13300, 2.00, 2197081.0, 12664.3955
0.13500, 2.00, 2220660.0, 12732.1711
0.13700, 2.00, 2226865.0, 12749.9469
0.13900, 2.00, 2265847.0, 12861.0587
0.14100, 2.00, 2251612.0, 12820.5958
0.14300, 2.00, 2254897.0, 12829.9447
0.14500, 2.00, 2303442.0, 12967.3153
0.14700, 2.00, 2315049.0, 12999.9453
0.14900, 2.00, 2308406.0, 12981.2803
0.15100, 2.00, 2351914.0, 13103.0425
0.15300, 2.00, 2344687.0, 13082.8954
0.15500, 2.00, 2371770.0, 13158.2373
0.15700, 2.00, 2374471.0, 13165.7276
0.15900, 2.00, 2389363.0, 13206.9489
0.16100, 2.00, 2396955.0, 13227.9142
0.16300, 2.00, 2422213.0, 13297.4264
0.16500, 2.00, 2459589.0, 13399.6267
0.16700, 2.00, 2417687.0, 13284.9972
0.16900, 2.00, 2459954.0, 13400.6210
0.17100, 2.00, 2480394.0, 13456.1793
0.17300, 2.00, 2480759.0, 13457.1694
0.17500, 2.00, 2499009.0, 13506.5783
0.17700, 2.00, 2504922.0, 13522.5481
0.17900, 2.00, 2533173.0, 13598.5892
0.18100, 2.00, 2521201.0, 13566.4171
0.18300, 2.00, 2547846.0, 13637.9162
0.18500, 2.00, 2541203.0, 13620.1255
0.18700, 2.00, 2550985.0, 13646.3147
0.18900, 2.00, 2568578.0, 13693.2901
0.19100, 2.00, 2574783.0, 13709.8198
0.19300, 2.00, 2597486.0, 13770.1299
0.19500, 2.00, 2608144.0, 13798.3518
0.19700, 2.00, 2621868.0, 13834.6075
0.19900, 2.00, 2614422.0, 13814.9486
0.20100, 2.00, 2625737.0, 13844.8113
0.20300, 2.00, 2619532.0, 13828.4430
0.20500, 2.00, 2631212.0, 13859.2379
0.20700, 2.00, 2647564.0, 13902.2362
0.20900, 2.00, 2680852.0, 13989.3601
0.21100, 2.00, 2635592.0, 13870.7684
0.21300, 2.00, 2655740.0, 13923.6856
0.21500, 2.00, 2655886.0, 13924.0683
0.21700, 2.00, 2676034.0, 13976.7837
0.21900, 2.00, 2645593.0, 13897.0604
0.22100, 2.00, 2676764.0, 13978.6899
0.22300, 2.00, 2652455.0, 13915.0715
0.22500, 2.00, 2670194.0, 13961.5243
0.22700, 2.00, 2696474.0, 14030.0607
0.22900, 2.00, 2694357.0, 14024.5521
0.23100, 2.00, 2663478.0, 13943.9555
0.23300, 2.00, 2701219.0, 14042.3996
0.23500, 2.00, 2669026.0, 13958.4705
0.23700, 2.00, 2681874.0, 13992.0264
0.23900, 2.00, 2691583.0, 14017.3307
0.24100, 2.00, 2716549.0, 14082.1901
0.24300, 2.00, 2666909.0, 13952.9336
0.24500, 2.00, 2692459.0, 14019.6115
0.24700, 2.00, 2669683.0, 13960.1884
0.24900, 2.00, 2665084.0, 13948.1587
0.25100, 2.00, 2667566.0, 13954.6522
0.25300, 2.00, 2672603.0, 13967.8208
0.25500, 2.00, 2644498.0, 13894.1842
0.25700, 2.00, 2669099.0, 13958.6614
0.25900, 2.00, 2623693.0, 13839.4216
0.26100, 2.00, 2631358.0, 13859.6224
0.26300, 2.00, 2627927.0, 13850.5838
0.26500, 2.00, 2612743.0, 13810.5119
0.26700, 2.00, 2613473.0, 13812.4411
0.26900, 2.00, 2551496.0, 13647.6814
0.27100, 2.00, 2550547.0, 13645.1431
0.27300, 2.00, 2514339.0, 13547.9425
0.27500, 2.00, 2476306.0, 13445.0860
0.27700, 2.00, 2447982.0, 13367.9724
0.27900, 2.00, 2381990.0, 13186.5564
0.28100, 2.00, 2349578.0, 13096.5337
0.28300, 2.00, 2271833.0, 12878.0359
0.28500, 2.00, 2167443.0, 12578.6859
0.28700, 2.00, 2022903.0, 12152.0335
0.28900, 2.00, 1898949.0, 11773.8387
0.29100, 2.00, 1762001.0, 11341.3435
0.29300, 2.00, 1609650.0, 10839.9470
0.29500, 2.00, 1466424.0, 10346.4463
0.29700, 2.00, 1335243.0, 9872.8283
0.29900, 2.00, 1206690.0, 9385.5405
0.30100, 2.00, 1092299.0, 8929.6040
0.30300, 2.00, 998932.0, 8539.4400
0.30500, 2.00, 933013.0, 8252.8752
0.30700, 2.00, 854246.0, 7896.8321
0.30900, 2.00, 802854.0, 7655.6085
0.31100, 2.00, 799524.0, 894.1611
0.31300, 2.00, 746749.0, 864.1464
0.31500, 2.00, 698561.0, 835.7996
0.31700, 2.00, 656347.0, 810.1525
0.31900, 2.00, 617906.0, 786.0700
0.32100, 2.00, 583631.0, 763.9575
0.32300, 2.00, 547724.0, 740.0838
0.32500, 2.00, 519334.0, 720.6483
0.32700, 2.00, 491878.0, 701.3401
0.32900, 2.00, 467513.0, 683.7492
0.33100, 2.00, 445935.0, 667.7836
0.33300, 2.00, 421887.0, 649.5283
0.33500, 2.00, 402117.0, 634.1270
0.33700, 2.00, 383749.0, 619.4748
0.33900, 2.00, 367513.0, 606.2285
0.34100, 2.00, 351886.0, 593.1998
0.34300, 2.00, 337650.0, 581.0766
0.34500, 2.00, 326612.0, 571.4998
0.34700, 2.00, 312442.0, 558.9651
0.34900, 2.00, 300819.0, 548.4697
0.35100, 2.00, 288903.0, 537.4970
0.35300, 2.00, 278390.0, 527.6268
0.35500, 2.00, 266997.0, 516.7175
0.35700, 2.00, 257685.0, 507.6268
0.35900, 2.00, 248238.0, 498.2349
0.36100, 2.00, 239100.0, 488.9785
0.36300, 2.00, 229724.0, 479.2953
0.36500, 2.00, 221537.0, 470.6772
0.36700, 2.00, 212778.0, 461.2787
0.36900, 2.00, 204218.0, 451.9049
0.37100, 2.00, 197796.0, 444.7426
0.37300, 2.00, 190354.0, 436.2958
0.37500, 2.00, 184316.0, 429.3204
0.37700, 2.00, 178512.0, 422.5068
0.37900, 2.00, 173048.0, 415.9904
0.38100, 2.00, 168135.0, 410.0427
0.38300, 2.00, 163389.0, 404.2141
0.38500, 2.00, 157588.0, 396.9736
0.38700, 2.00, 153309.0, 391.5469
0.38900, 2.00, 148531.0, 385.3972
0.39100, 2.00, 144536.0, 380.1789
0.39300, 2.00, 139632.0, 373.6737
0.39500, 2.00, 136553.0, 369.5308
0.39700, 2.00, 132131.0, 363.4983
0.39900, 2.00, 128446.0, 358.3936
0.40100, 2.00, 124678.0, 353.0977
0.40300, 2.00, 121380.0, 348.3963
0.40500, 2.00, 117415.0, 342.6587
0.40700, 2.00, 114596.0, 338.5203
0.40900, 2.00, 111167.0, 333.4172
0.41100, 2.00, 108345.0, 329.1580
0.41300, 2.00, 105356.0, 324.5859
0.41500, 2.00, 102306.0, 319.8531
0.41700, 2.00, 99582.0, 315.5662
0.41900, 2.00, 98003.0, 313.0543
0.42100, 2.00, 94095.0, 306.7491
0.42300, 2.00, 91960.0, 303.2491
0.42500, 2.00, 90597.0, 300.9934
0.42700, 2.00, 87643.0, 296.0456
0.42900, 2.00, 85182.0, 291.8596
0.43100, 2.00, 82821.0, 287.7864
0.43300, 2.00, 81503.0, 285.4873
0.43500, 2.00, 79682.0, 282.2800
0.43700, 2.00, 77422.0, 278.2481
0.43900, 2.00, 75960.0, 275.6084
0.44100, 2.00, 74675.0, 273.2673
0.44300, 2.00, 73280.0, 270.7028
0.44500, 2.00, 70496.0, 265.5108
0.44700, 2.00, 69558.0, 263.7385
0.44900, 2.00, 68310.0, 261.3618
0.45100, 2.00, 66682.0, 258.2286
0.45300, 2.00, 65036.0, 255.0216
0.45500, 2.00, 63383.0, 251.7598
0.45700, 2.00, 62460.0, 249.9200
0.45900, 2.00, 61071.0, 247.1255
0.46100, 2.00, 58977.0, 242.8518
0.46300, 2.00, 57553.0, 239.9021
0.46500, 2.00, 56923.0, 238.5854
0.46700, 2.00, 55641.0, 235.8834
0.46900, 2.00, 54652.0, 233.7777
0.47100, 2.00, 52505.0, 229.1397
0.47300, 2.00, 51562.0, 227.0727
0.47500, 2.00, 50871.0, 225.5460
0.47700, 2.00, 50917.0, 225.6480
0.47900, 2.00, 49372.0, 222.1981
0.48100, 2.00, 47585.0, 218.1399
0.48300, 2.00, 47254.0, 217.3799
0.48500, 2.00, 46975.0, 216.7372
0.48700, 2.00, 45870.0, 214.1728
0.48900, 2.00, 44106.0, 210.0143
0.49100, 2.00, 42952.0, 207.2486
0.49300, 2.00, 43351.0, 208.2090
0.49500, 2.00, 42984.0, 207.3258
0.49700, 2.00, 41288.0, 203.1945
0.49900, 2.00, 40283.0, 200.7063
0.50100, 2.00, 39721.0, 199.3013
0.50300, 2.00, 40080.0, 200.1999
0.50500, 2.00, 38846.0, 197.0939
0.50700, 2.00, 36729.0, 191.6481
0.50900, 2.00, 36000.0, 189.7367
0.51100, 2.00, 36175.0, 190.1973
0.51300, 2.00, 35562.0, 188.5789
0.51500, 2.00, 34497.0, 185.7337
0.51700, 2.00, 33630.0, 183.3848
0.51900, 2.00, 33677.0, 183.5129
0.52100, 2.00, 34014.0, 184.4288
0.52300, 2.00, 33416.0, 182.8004
0.52500, 2.00, 31825.0, 178.3956
0.52700, 2.00, 31034.0, 176.1647
0.52900, 2.00, 30498.0, 174.6368
0.53100, 2.00, 31263.0, 176.8135
0.53300, 2.00, 30024.0, 173.2743
0.53500, 2.00, 28944.0, 170.1294
0.53700, 2.00, 28658.0, 169.2867
0.53900, 2.00, 28828.0, 169.7881
0.54100, 2.00, 28643.0, 169.2424
0.54300, 2.00, 27649.0, 166.2799
0.54500, 2.00, 26213.0, 161.9043
0.54700, 2.00, 26443.0, 162.6130
0.54900, 2.00, 26469.0, 162.6930
0.55100, 2.00, 26240.0, 161.9877
0.55300, 2.00, 25438.0, 159.4929
0.55500, 2.00, 24041.0, 155.0516
0.55700, 2.00, 23895.0, 154.5801
0.55900, 2.00, 24507.0, 156.5471
0.56100, 2.00, 24043.0, 155.0581
0.56300, 2.00, 23011.0, 151.6938
0.56500, 2.00, 22575.0, 150.2498
0.56700, 2.00, 22829.0, 151.0927
0.56900, 2.00, 23315.0, 152.6925
0.57100, 2.00, 22410.0, 149.6997
0.57300, 2.00, 21251.0, 145.7772
0.57500, 2.00, 20469.0, 143.0699
0.57700, 2.00, 20995.0, 144.8965
0.57900, 2.00, 21736.0, 147.4313
0.58100, 2.00, 20718.0, 143.9375
0.58300, 2.00, 19836.0, 140.8403
0.58500, 2.00, 19675.0, 140.2676
0.58700, 2.00, 20146.0, 141.9366
0.58900, 2.00, 19980.0, 141.3506
0.59100, 2.00, 19194.0, 138.5424
0.59300, 2.00, 18276.0, 135.1888
0.59500, 2.00, 18194.0, 134.8851
0.59700, 2.00, 19083.0, 138.1412
0.59900, 2.00, 18603.0, 136.3928
0.60100, 2.00, 17716.0, 133.1015
0.60300, 2.00, 16695.0, 129.2091
0.60500, 2.00, 17049.0, 130.5718
0.60700, 2.00, 17582.0, 132.5971
0.60900, 2.00, 16968.0, 130.2613
0.61100, 2.00, 16212.0, 127.3264
0.61300, 2.00, 15372.0, 123.9839
0.61500, 2.00, 16180.0, 127.2006
0.61700, 2.00, 16616.0, 128.9031
0.61900, 2.00, 16553.0, 128.6585
0.62100, 2.00, 15198.0, 123.2802
0.62300, 2.00, 14876.0, 121.9672
0.62500, 2.00, 15130.0, 123.0041
0.62700, 2.00, 15408.0, 124.1290
0.62900, 2.00, 14953.0, 122.2825
0.63100, 2.00, 13893.0, 117.8686
0.63300, 2.00, 13568.0, 116.4818
0.63500, 2.00, 14172.0, 119.0462
0.63700, 2.00, 14501.0, 120.4201
0.63900, 2.00, 13818.0, 117.5500
0.64100, 2.00, 12919.0, 113.6618
0.64300, 2.00, 12429.0, 111.4854
0.64500, 2.00, 13272.0, 115.2042
0.64700, 2.00, 13732.0, 117.1836
0.64900, 2.00, 13110.0, 114.4989
0.65100, 2.00, 12131.0, 110.1408
0.65300, 2.00, 11778.0, 108.5265
0.65500, 2.00, 12606.0, 112.2764
0.65700, 2.00, 13187.0, 114.8347
0.65900, 2.00, 12457.0, 111.6109
0.66100, 2.00, 11613.0, 107.7636
0.66300, 2.00, 11579.0, 107.6058
0.66500, 2.00, 12189.0, 110.4038
0.66700, 2.00, 12344.0, 111.1036
0.66900, 2.00, 11645.0, 107.9120
0.67100, 2.00, 10827.0, 104.0529
0.67300, 2.00, 10919.0, 104.4940
0.67500, 2.00, 11535.0, 107.4011
0.67700, 2.00, 11733.0, 108.3190
0.67900, 2.00, 10853.0, 104.1777
0.68100, 2.00, 10215.0, 101.0693
0.68300, 2.00, 10134.0, 100.6678
0.68500, 2.00, 10855.0, 104.1873
0.68700, 2.00, 10835.0, 104.0913
0.68900, 2.00, 10445.0, 102.2008
0.69100, 2.00, 9401.0, 96.9588
0.69300, 2.00, 9664.0, 98.3056
0.69500, 2.00, 10426.0, 102.1078
0.69700, 2.00, 10566.0, 102.7911
0.69900, 2.00, 9737.0, 98.6762
0.70100, 2.00, 9201.0, 95.9218
0.70300, 2.00, 9349.0, 96.6902
0.70500, 2.00, 9937.0, 99.6845
0.70700, 2.00, 9948.0, 99.7397
0.70900, 2.00, 9170.0, 95.7601
0.71100, 2.00, 8816.0, 93.8936
0.71300, 2.00, 8992.0, 94.8262
0.71500, 2.00, 9448.0, 97.2008
0.71700, 2.00, 9856.0, 99.2774
0.71900, 2.00, 9049.0, 95.1262
0.72100, 2.00, 8111.0, 90.0611
0.72300, 2.00, 8401.0, 91.6570
0.72500, 2.00, 8880.0, 94.2338
0.72700, 2.00, 9051.0, 95.1367
0.72900, 2.00, 8601.0, 92.7416
0.73100, 2.00, 7844.0, 88.5664
0.73300, 2.00, 7814.0, 88.3968
0.73500, 2.00, 8417.0, 91.7442
0.73700, 2.00, 8780.0, 93.7017
0.73900, 2.00, 8197.0, 90.5373
0.74100, 2.00, 7511.0, 86.6660
0.74300, 2.00, 7463.0, 86.3887
0.74500, 2.00, 7981.0, 89.3364
0.74700, 2.00, 8245.0, 90.8020
0.74900, 2.00, 7833.0, 88.5042
0.75100, 2.00, 7021.0, 83.7914
0.75300, 2.00, 6930.0, 83.2466
0.75500, 2.00, 7428.0, 86.1858
0.75700, 2.00, 7980.0, 89.3308
0.75900, 2.00, 7842.0, 88.5551
0.76100, 2.00, 6948.0, 83.3547
0.76300, 2.00, 6848.0, 82.7526
0.76500, 2.00, 7338.0, 85.6621
0.76700, 2.00, 7640.0, 87.4071
0.76900, 2.00, 7420.0, 86.1394
0.77100, 2.00, 6712.0, 81.9268
0.77300, 2.00, 6153.0, 78.4411
0.77500, 2.00, 6451.0, 80.3181
0.77700, 2.00, 7200.0, 84.8528
0.77900, 2.00, 7103.0, 84.2793
0.78100, 2.00, 6664.0, 81.6333
0.78300, 2.00, 6144.0, 78.3837
0.78500, 2.00, 6464.0, 80.3990
0.78700, 2.00, 6923.0, 83.2046
0.78900, 2.00, 7223.0, 84.9882
0.79100, 2.00, 6607.0, 81.2835
0.79300, 2.00, 5779.0, 76.0197
0.79500, 2.00, 5791.0, 76.0986
0.79700, 2.00, 6593.0, 81.1973
0.79900, 2.00, 6796.0, 82.4379
0.80100, 2.00, 6409.0, 80.0562
0.80300, 2.00, 5583.0, 74.7195
0.80500, 2.00, 5459.0, 73.8850
0.80700, 2.00, 6171.0, 78.5557
0.80900, 2.00, 6476.0, 80.4736
0.81100, 2.00, 6116.0, 78.2049
0.81300, 2.00, 5420.0, 73.6206
0.81500, 2.00, 5383.0, 73.3689
0.81700, 2.00, 5822.0, 76.3020
0.81900, 2.00, 6429.0, 80.1810
0.82100, 2.00, 6133.0, 78.3135
0.82300, 2.00, 5408.0, 73.5391
0.82500, 2.00, 4935.0, 70.2496
0.82700, 2.00, 5473.0, 73.9797
0.82900, 2.00, 6191.0, 78.6829
0.83100, 2.00, 6136.0, 78.3326
0.83300, 2.00, 5446.0, 73.7970
0.83500, 2.00, 4888.0, 69.9142
0.83700, 2.00, 5405.0, 73.5187
0.83900, 2.00, 5829.0, 76.3479
0.84100, 2.00, 5960.0, 77.2010
0.84300, 2.00, 5211.0, 72.1873
0.84500, 2.00, 4761.0, 69.0000
0.84700, 2.00, 4919.0, 70.1356
0.84900, 2.00, 5574.0, 74.6592
0.85100, 2.00, 5622.0, 74.9800
0.85300, 2.00, 5205.0, 72.1457
0.85500, 2.00, 4710.0, 68.6294
0.85700, 2.00, 4644.0, 68.1469
0.85900, 2.00, 5136.0, 71.6659
0.86100, 2.00, 5515.0, 74.2630
0.86300, 2.00, 5190.0, 72.0417
0.86500, 2.00, 4478.0, 66.9179
0.86700, 2.00, 4269.0, 65.3376
0.86900, 2.00, 4808.0, 69.3397
0.87100, 2.00, 5214.0, 72.2080
0.87300, 2.00, 5060.0, 71.1337
0.87500, 2.00, 4424.0, 66.5132
0.87700, 2.00, 4143.0, 64.3661
0.87900, 2.00, 4437.0, 66.6108
0.88100, 2.00, 5226.0, 72.2911
0.88300, 2.00, 5118.0, 71.5402
0.88500, 2.00, 4418.0, 66.4680
0.88700, 2.00, 4225.0, 65.0000
0.88900, 2.00, 4394.0, 66.2873
0.89100, 2.00, 5171.0, 71.9097
0.89300, 2.00, 5271.0, 72.6017
0.89500, 2.00, 4736.0, 68.8186
0.89700, 2.00, 4193.0, 64.7534
0.89900, 2.00, 4261.0, 65.2763
0.90100, 2.00, 4846.0, 69.6132
0.90300, 2.00, 4955.0, 70.3918
0.90500, 2.00, 4550.0, 67.4537
0.90700, 2.00, 3952.0, 62.8649
0.90900, 2.00, 4053.0, 63.6632
0.91100, 2.00, 4499.0, 67.0746
0.91300, 2.00, 4911.0, 70.0785
0.91500, 2.00, 4697.0, 68.5347
0.91700, 2.00, 4044.0, 63.5925
0.91900, 2.00, 4021.0, 63.4114
0.92100, 2.00, 4475.0, 66.8954
0.92300, 2.00, 4764.0, 69.0217
0.92500, 2.00, 4528.0, 67.2904
0.92700, 2.00, 3786.0, 61.5305
0.92900, 2.00, 3614.0, 60.1166
0.93100, 2.00, 4184.0, 64.6838
0.93300, 2.00, 4620.0, 67.9706
0.93500, 2.00, 4540.0, 67.3795
0.93700, 2.00, 3994.0, 63.1981
0.93900, 2.00, 3633.0, 60.2744
0.94100, 2.00, 3947.0, 62.8252
0.94300, 2.00, 4585.0, 67.7126
0.94500, 2.00, 4338.0, 65.8635
0.94700, 2.00, 4011.0, 63.3325
0.94900, 2.00, 3399.0, 58.3009
0.95100, 2.00, 3753.0, 61.2617
0.95300, 2.00, 4345.0, 65.9166
0.95500, 2.00, 4487.0, 66.9851
0.95700, 2.00, 4059.0, 63.7103
0.95900, 2.00, 3548.0, 59.5651
0.96100, 2.00, 3717.0, 60.9672
0.96300, 2.00, 4315.0, 65.6887
0.96500, 2.00, 4548.0, 67.4389
0.96700, 2.00, 4220.0, 64.9615
0.96900, 2.00, 3620.0, 60.1664
0.97100, 2.00, 3574.0, 59.7829
0.97300, 2.00, 4164.0, 64.5291
0.97500, 2.00, 4663.0, 68.2862
0.97700, 2.00, 4339.0, 65.8711
0.97900, 2.00, 3613.0, 60.1082
0.98100, 2.00, 3393.0, 58.2495
0.98300, 2.00, 3593.0, 59.9416
0.98500, 2.00, 4215.0, 64.9230
0.98700, 2.00, 4205.0, 64.8460
0.98900, 2.00, 3712.0, 60.9262
0.99100, 2.00, 3377.0, 58.1120
0.99300, 2.00, 3532.0, 59.4306
0.99500, 2.00, 4169.0, 64.5678
0.99700, 2.00, 4422.0, 66.4981
0.99900, 2.00, 4029.0, 63.4744
1.00100, 2.00, 3300.0, 57.4456
1.00300, 2.00, 3295.0, 57.4021
1.00500, 2.00, 3772.0, 61.4166
1.00700, 2.00, 4159.0, 64.4903
1.00900, 2.00, 4078.0, 63.8592
1.01100, 2.00, 3537.0, 59.4727
1.01300, 2.00, 3221.0, 56.7539
1.01500, 2.00, 3687.0, 60.7207
1.01700, 2.00, 4315.0, 65.6887
1.01900, 2.00, 4234.0, 65.0692
1.02100, 2.00, 3535.0, 59.4559
1.02300, 2.00, 3181.0, 56.4004
1.02500, 2.00, 3284.0, 57.3062
1.02700, 2.00, 3955.0, 62.8888
1.02900, 2.00, 4293.0, 65.5210
1.03100, 2.00, 3865.0, 62.1691
1.03300, 2.00, 3282.0, 57.2887
1.03500, 2.00, 3235.0, 56.8771
1.03700, 2.00, 3765.0, 61.3596
1.03900, 2.00, 4126.0, 64.2339
1.04100, 2.00, 4039.0, 63.5531
1.04300, 2.00, 3314.0, 57.5674
1.04500, 2.00, 3031.0, 55.0545
1.04700, 2.00, 3424.0, 58.5150
1.04900, 2.00, 4054.0, 63.6710
1.05100, 2.00, 3995.0, 63.2060
1.05300, 2.00, 3478.0, 58.9746
1.05500, 2.00, 3020.0, 54.9545
1.05700, 2.00, 2908.0, 53.9259
1.05900, 2.00, 3555.0, 59.6238
1.06100, 2.00, 3804.0, 61.6766
1.06300, 2.00, 3637.0, 60.3075
1.06500, 2.00, 3066.0, 55.3715
1.06700, 2.00, 3189.0, 56.4712
1.06900, 2.00, 3808.0, 61.7090
1.07100, 2.00, 4203.0, 64.8305
1.07300, 2.00, 4078.0, 63.8592
1.07500, 2.00, 3433.0, 58.5918
1.07700, 2.00, 3237.0, 56.8946
1.07900, 2.00, 3505.0, 59.2030
1.08100, 2.00, 4157.0, 64.4748
1.08300, 2.00, 4329.0, 65.7951
1.08500, 2.00, 3711.0, 60.9180
1.08700, 2.00, 3336.0, 57.7581
1.08900, 2.00, 3814.0, 61.7576
1.09100, 2.00, 4682.0, 68.4251
1.09300, 2.00, 5105.0, 71.4493
1.09500, 2.00, 4466.0, 66.8281
1.09700, 2.00, 3783.0, 61.5061
1.09900, 2.00, 3486.0, 59.0424
1.10100, 2.00, 3978.0, 63.0714
1.10300, 2.00, 4623.0, 67.9926
1.10500, 2.00, 4211.0, 64.8922
1.10700, 2.00, 3466.0, 58.8727
1.10900, 2.00, 3106.0, 55.7315
1.11100, 2.00, 3366.0, 58.0172
1.11300, 2.00, 4203.0, 64.8305
1.11500, 2.00, 4311.0, 65.6582
1.11700, 2.00, 3674.0, 60.6135
1.11900, 2.00, 3217.0, 56.7186
1.12100, 2.00, 3428.0, 58.5491
1.12300, 2.00, 4263.0, 65.2917
1.12500, 2.00, 4582.0, 67.6905
1.12700, 2.00, 4060.0, 63.7181
1.12900, 2.00, 3443.0, 58.6771
1.13100, 2.00, 3507.0, 59.2199
1.13300, 2.00, 4250.0, 65.1920
1.13500, 2.00, 4974.0, 70.5266
1.13700, 2.00, 4676.0, 68.3813
1.13900, 2.00, 3576.0, 59.7997
1.14100, 2.00, 3269.0, 57.1752
1.14300, 2.00, 3590.0, 59.9166
1.14500, 2.00, 4322.0, 65.7419
1.14700, 2.00, 4301.0, 65.5820
1.14900, 2.00, 3637.0, 60.3075
1.15100, 2.00, 3224.0, 56.7803
1.15300, 2.00, 3737.0, 61.1310
1.15500, 2.00, 4608.0, 67.8823
1.15700, 2.00, 4883.0, 69.8785
1.15900, 2.00, 4435.0, 66.5958
1.16100, 2.00, 3668.0, 60.5640
1.16300, 2.00, 3622.0, 60.1831
1.16500, 2.00, 4482.0, 66.9477
1.16700, 2.00, 5060.0, 71.1337
1.16900, 2.00, 4492.0, 67.0224
1.17100, 2.00, 3647.0, 60.3904
1.17300, 2.00, 3314.0, 57.5674
1.17500, 2.00, 3938.0, 62.7535
1.17700, 2.00, 4725.0, 68.7386
1.17900, 2.00, 4711.0, 68.6367
1.18100, 2.00, 3799.0, 61.6360
1.18300, 2.00, 3170.0, 56.3028
1.18500, 2.00, 3485.0, 59.0339
1.18700, 2.00, 4419.0, 66.4756
1.18900, 2.00, 4720.0, 68.7023
1.19100, 2.00, 4089.0, 63.9453
1.19300, 2.00, 3847.0, 62.0242
1.19500, 2.00, 4421.0, 66.4906
1.19700, 2.00, 5563.0, 74.5855
1.19900, 2.00, 5966.0, 77.2399
1.20100, 2.00, 5076.0, 71.2461
1.20300, 2.00, 4069.0, 63.7887
1.20500, 2.00, 4070.0, 63.7966
1.20700, 2.00, 4914.0, 70.0999
1.20900, 2.00, 5889.0, 76.7398
1.21100, 2.00, 5444.0, 73.7835
1.21300, 2.00, 4219.0, 64.9538
1.21500, 2.00, 3623.0, 60.1914
1.21700, 2.00, 4279.0, 65.4141
1.21900, 2.00, 5557.0, 74.5453
1.22100, 2.00, 5592.0, 74.7797
1.22300, 2.00, 4768.0, 69.0507
1.22500, 2.00, 4067.0, 63.7730
1.22700, 2.00, 4728.0, 68.7605
1.22900, 2.00, 5889.0, 76.7398
1.23100, 2.00, 6609.0, 81.2958
1.23300, 2.00, 5998.0, 77.4468
1.23500, 2.00, 4499.0, 67.0746
1.23700, 2.00, 4109.0, 64.1015
1.23900, 2.00, 5040.0, 70.9930
1.24100, 2.00, 6171.0, 78.5557
1.24300, 2.00, 5871.0, 76.6225
1.24500, 2.00, 4676.0, 68.3813
1.24700, 2.00, 3980.0, 63.0872
1.24900, 2.00, 4902.0, 70.0143
1.25100, 2.00, 6534.0, 80.8332
1.25300, 2.00, 7035.0, 83.8749
1.25500, 2.00, 6051.0, 77.7882
1.25700, 2.00, 4425.0, 66.5207
1.25900, 2.00, 4048.0, 63.6239
1.26100, 2.00, 5284.0, 72.6911
1.26300, 2.00, 6052.0, 77.7946
1.26500, 2.00, 5947.0, 77.1168
1.26700, 2.00, 4956.0, 70.3989
1.26900, 2.00, 4812.0, 69.3686
1.27100, 2.00, 6536.0, 80.8455
1.27300, 2.00, 8599.0, 92.7308
1.27500, 2.00, 9232.0, 96.0833
1.27700, 2.00, 7845.0, 88.5720
1.27900, 2.00, 6207.0, 78.7845
1.28100, 2.00, 7306.0, 85.4751
1.28300, 2.00, 10118.0, 100.5883
1.28500, 2.00, 11881.0, 109.0000
1.28700, 2.00, 10761.0, 103.7352
1.28900, 2.00, 8442.0, 91.8804
1.29100, 2.00, 7351.0, 85.7380
1.29300, 2.00, 8931.0, 94.5040
1.29500, 2.00, 11232.0, 105.9811
1.29700, 2.00, 11604.0, 107.7219
1.29900, 2.00, 9321.0, 96.5453
1.30100, 2.00, 7013.0, 83.7437
1.30300, 2.00, 7499.0, 86.5968
1.30500, 2.00, 9620.0, 98.0816
1.30700, 2.00, 11087.0, 105.2948
1.30900, 2.00, 9995.0, 99.9750
1.31100, 2.00, 8402.0, 91.6624
1.31300, 2.00, 9211.0, 95.9740
1.31500, 2.00, 13208.0, 114.9261
1.31700, 2.00, 16693.0, 129.2014
1.31900, 2.00, 16673.0, 129.1240
1.32100, 2.00, 12987.0, 113.9605
1.32300, 2.00, 9906.0, 99.5289
1.32500, 2.00, 11158.0, 105.6314
1.32700, 2.00, 14863.0, 121.9139
1.32900, 2.00, 16983.0, 130.3188
1.33100, 2.00, 14584.0, 120.7642
1.33300, 2.00, 11715.0, 108.2359
1.33500, 2.00, 12494.0, 111.7766
1.33700, 2.00, 17800.0, 133.4166
1.33900, 2.00, 22470.0, 149.9000
1.34100, 2.00, 22271.0, 149.2347
1.34300, 2.00, 17226.0, 131.2479
1.34500, 2.00, 13974.0, 118.2117
1.34700, 2.00, 17023.0, 130.4722
1.34900, 2.00, 23374.0, 152.8856
1.35100, 2.00, 26178.0, 161.7962
1.35300, 2.00, 22344.0, 149.4791
1.35500, 2.00, 17448.0, 132.0909
1.35700, 2.00, 18342.0, 135.4326
1.35900, 2.00, 26253.0, 162.0278
1.36100, 2.00, 33305.0, 182.4966
1.36300, 2.00, 32743.0, 180.9503
1.36500, 2.00, 25476.0, 159.6120
1.36700, 2.00, 21995.0, 148.3071
1.36900, 2.00, 28678.0, 169.3458
1.37100, 2.00, 40023.0, 200.0575
1.37300, 2.00, 44740.0, 211.5183
1.37500, 2.00, 38061.0, 195.0923
1.37700, 2.00, 29636.0, 172.1511
1.37900, 2.00, 32210.0, 179.4714
1.38100, 2.00, 45284.0, 212.8004
1.38300, 2.00, 57682.0, 240.1708
1.38500, 2.00, 56093.0, 236.8396
1.38700, 2.00, 44654.0, 211.3149
1.38900, 2.00, 40542.0, 201.3504
1.39100, 2.00, 55559.0, 235.7096
1.39300, 2.00, 78388.0, 279.9786
1.39500, 2.00, 88995.0, 298.3203
1.39700, 2.00, 77141.0, 277.7427
1.39900, 2.00, 60043.0, 245.0367
1.40100, 2.00, 63453.0, 251.8988
1.40300, 2.00, 92983.0, 304.9311
1.40500, 2.00, 121876.0, 349.1074
1.40700, 2.00, 123407.0, 351.2933
1.40900, 2.00, 99458.0, 315.3696
1.41100, 2.00, 87977.0, 296.6092
1.41300, 2.00, 118560.0, 344.3254
1.41500, 2.00, 176142.0, 419.6927
1.41700, 2.00, 211937.0, 460.3662
1.41900, 2.00, 192934.0, 439.2425
1.42100, 2.00, 151779.0, 389.5882
1.42300, 2.00, 151969.0, 389.8320
1.42500, 2.00, 225909.0, 475.2989
1.42700, 2.00, 323516.0, 568.7847
1.42900, 2.00, 365154.0, 604.2797
1.43100, 2.00, 323199.0, 568.5059
1.43300, 2.00, 269483.0, 519.1175
1.43500, 2.00, 315085.0, 561.3243
1.43700, 2.00, 483443.0, 695.3007
1.43900, 2.00, 675216.0, 821.7153
1.44100, 2.00, 757113.0, 870.1224
1.44300, 2.00, 698809.0, 835.9480
1.44500, 2.00, 632488.0, 795.2911
1.44700, 2.00, 754831.0, 868.8101
1.44900, 2.00, 1025796.0, 8653.5026
1.45100, 2.00, 1435180.0, 10235.6309
1.45300, 2.00, 1723603.0, 11217.0860
1.45500, 2.00, 1757913.0, 11328.1794
1.45700, 2.00, 1632572.0, 10916.8565
1.45900, 2.00, 1504311.0, 10479.2511
1.46100, 2.00, 1521320.0, 10538.3281
1.46300, 2.00, 1759154.0, 11332.1773
1.46500, 2.00, 2107072.0, 12402.2682
1.46700, 2.00, 2353228.0, 13106.7023
1.46900, 2.00, 2447325.0, 13366.1784
1.47100, 2.00, 2351768.0, 13102.6358
1.47300, 2.00, 2107510.0, 12403.5572
1.47500, 2.00, 1812955.0, 11504.1608
1.47700, 2.00, 1474965.0, 10376.5334
1.47900, 2.00, 1162233.0, 9211.0265
1.48100, 2.00, 910748.0, 8153.8092
1.48300, 2.00, 803528.0, 896.3972
1.48500, 2.00, 701093.0, 837.3130
1.48700, 2.00, 638119.0, 798.8235
1.48900, 2.00, 554938.0, 744.9416
1.49100, 2.00, 439376.0, 662.8544
1.49300, 2.00, 303470.0, 550.8811
1.49500, 2.00, 180001.0, 424.2652
1.49700, 2.00, 96045.0, 309.9113
1.49900, 2.00, 53515.0, 231.3331
1.50100, 2.00, 39604.0, 199.0075
1.50300, 2.00, 36518.0, 191.0968
1.50500, 2.00, 32388.0, 179.9667
1.50700, 2.00, 25891.0, 160.9068
1.50900, 2.00, 19021.0, 137.9166
1.51100, 2.00, 14274.0, 119.4738
1.51300, 2.00, 10969.0, 104.7330
1.51500, 2.00, 8307.0, 91.1427
1.51700, 2.00, 6390.0, 79.9375
1.51900, 2.00, 6179.0, 78.6066
1.52100, 2.00, 7759.0, 88.0852
1.52300, 2.00, 8936.0, 94.5304
1.52500, 2.00, 8998.0, 94.8578
1.52700, 2.00, 7960.0, 89.2188
1.52900, 2.00, 6357.0, 79.7308
1.53100, 2.00, 5698.0, 75.4851
1.53300, 2.00, 5284.0, 72.6911
1.53500, 2.00, 5063.0, 71.1548
1.53700, 2.00, 4464.0, 66.8132
1.53900, 2.00, 4310.0, 65.6506
1.54100, 2.00, 4811.0, 69.3614
1.54300, 2.00, 5643.0, 75.1199
1.54500, 2.00, 5849.0, 76.4788
1.54700, 2.00, 5041.0, 71.0000
1.54900, 2.00, 3812.0, 61.7414
1.55100, 2.00, 2921.0, 54.0463
1.55300, 2.00, 2828.0, 53.1789
1.55500, 2.00, 3271.0, 57.1927
1.55700, 2.00, 3306.0, 57.4978
1.55900, 2.00, 2861.0, 53.4883
1.56100, 2.00, 2364.0, 48.6210
1.56300, 2.00, 2104.0, 45.8694
1.56500, 2.00, 2397.0, 48.9592
1.56700, 2.00, 2545.0, 50.4480
1.56900, 2.00, 2395.0, 48.9387
1.57100, 2.00, 1868.0, 43.2204
1.57300, 2.00, 1679.0, 40.9756
1.57500, 2.00, 1866.0, 43.1972
1.57700, 2.00, 1994.0, 44.6542
1.57900, 2.00, 1933.0, 43.9659
1.58100, 2.00, 1638.0, 40.4722
1.58300, 2.00, 1335.0, 36.5377
1.58500, 2.00, 1468.0, 38.3145
1.58700, 2.00, 1793.0, 42.3438
1.58900, 2.00, 1812.0, 42.5676
1.59100, 2.00, 1600.0, 40.0000
1.59300, 2.00, 1253.0, 35.3977
1.59500, 2.00, 1147.0, 33.8674
1.59700, 2.00, 1282.0, 35.8050
1.59900, 2.00, 1442.0, 37.9737
1.60100, 2.00, 1460.0, 38.2099
1.60300, 2.00, 1102.0, 33.1964
1.60500, 2.00, 930.0, 30.4959
1.60700, 2.00, 819.0, 28.6182
1.60900, 2.00, 1006.0, 31.7175
1.61100, 2.00, 1037.0, 32.2025
1.61300, 2.00, 859.0, 29.3087
1.61500, 2.00, 712.0, 26.6833
1.61700, 2.00, 731.0, 27.0370
1.61900, 2.00, 1058.0, 32.5269
1.62100, 2.00, 1073.0, 32.7567
1.62300, 2.00, 1007.0, 31.7333
1.62500, 2.00, 728.0, 26.9815
1.62700, 2.00, 622.0, 24.9399
1.62900, 2.00, 599.0, 24.4745
1.63100, 2.00, 669.0, 25.8650
1.63300, 2.00, 611.0, 24.7184
1.63500, 2.00, 541.0, 23.2594
1.63700, 2.00, 432.0, 20.7846
1.63900, 2.00, 550.0, 23.4521
1.64100, 2.00, 667.0, 25.8263
1.64300, 2.00, 764.0, 27.6405
1.64500, 2.00, 681.0, 26.0960
1.64700, 2.00, 522.0, 22.8473
1.64900, 2.00, 483.0, 21.9773
1.65100, 2.00, 507.0, 22.5167
1.65300, 2.00, 615.0, 24.7992
1.65500, 2.00, 581.0, 24.1039
1.65700, 2.00, 458.0, 21.4009
1.65900, 2.00, 367.0, 19.1572
1.66100, 2.00, 378.0, 19.4422
1.66300, 2.00, 519.0, 22.7816
1.66500, 2.00, 467.0, 21.6102
1.66700, 2.00, 410.0, 20.2485
1.66900, 2.00, 301.0, 17.3494
1.67100, 2.00, 303.0, 17.4069
1.67300, 2.00, 385.0, 19.6214
1.67500, 2.00, 416.0, 20.3961
1.67700, 2.00, 370.0, 19.2354
1.67900, 2.00, 289.0, 17.0000
1.68100, 2.00, 274.0, 16.5529
1.68300, 2.00, 274.0, 16.5529
1.68500, 2.00, 368.0, 19.1833
1.68700, 2.00, 369.0, 19.2094
1.68900, 2.00, 295.0, 17.1756
1.69100, 2.00, 240.0, 15.4919
1.69300, 2.00, 227.0, 15.0665
1.69500, 2.00, 269.0, 16.4012
1.69700, 2.00, 232.0, 15.2315
1.69900, 2.00, 217.0, 14.7309
1.70100, 2.00, 182.0, 13.4907
1.70300, 2.00, 191.0, 13.8203
1.70500, 2.00, 280.0, 16.7332
1.70700, 2.00, 285.0, 16.8819
1.70900, 2.00, 338.0, 18.3848
1.71100, 2.00, 210.0, 14.4914
1.71300, 2.00, 197.0, 14.0357
1.71500, 2.00, 178.0, 13.3417
1.71700, 2.00, 220.0, 14.8324
1.71900, 2.00, 185.0, 13.6015
1.72100, 2.00, 173.0, 13.1529
1.72300, 2.00, 171.0, 13.0767
1.72500, 2.00, 164.0, 12.8062
1.72700, 2.00, 211.0, 14.5258
1.72900, 2.00, 267.0, 16.3401
1.73100, 2.00, 245.0, 15.6525
1.73300, 2.00, 172.0, 13.1149
1.73500, 2.00, 162.0, 12.7279
1.73700, 2.00, 203.0, 14.2478
1.73900, 2.00, 247.0, 15.7162
1.74100, 2.00, 237.0, 15.3948
1.74300, 2.00, 211.0, 14.5258
1.74500, 2.00, 176.0, 13.2665
1.74700, 2.00, 119.0, 10.9087
1.74900, 2.00, 153.0, 12.3693
1.75100, 2.00, 191.0, 13.8203
1.75300, 2.00, 214.0, 14.6287
1.75500, 2.00, 157.0, 12.5300
1.75700, 2.00, 136.0, 11.6619
1.75900, 2.00, 111.0, 10.5357
1.76100, 2.00, 143.0, 11.9583
1.76300, 2.00, 152.0, 12.3288
1.76500, 2.00, 137.0, 11.7047
1.76700, 2.00, 91.0, 9.5394
1.76900, 2.00, 91.0, 9.5394
1.77100, 2.00, 90.0, 9.4868
1.77300, 2.00, 119.0, 10.9087
1.77500, 2.00, 112.0, 10.5830
1.77700, 2.00, 96.0, 9.7980
1.77900, 2.00, 84.0, 9.1652
1.78100, 2.00, 114.0, 10.6771
1.78300, 2.00, 132.0, 11.4891
1.78500, 2.00, 137.0, 11.7047
1.78700, 2.00, 120.0, 10.9545
1.78900, 2.00, 102.0, 10.0995
1.79100, 2.00, 73.0, 8.5440
1.79300, 2.00, 97.0, 9.8489
1.79500, 2.00, 88.0, 9.3808
1.79700, 2.00, 88.0, 9.3808
1.79900, 2.00, 75.0, 8.6603
1.80100, 2.00, 72.0, 8.4853
1.80300, 2.00, 68.0, 8.2462
1.80500, 2.00, 82.0, 9.0554
1.80700, 2.00, 83.0, 9.1104
1.80900, 2.00, 63.0, 7.9373
1.81100, 2.00, 52.0, 7.2111
1.81300, 2.00, 61.0, 7.8102
1.81500, 2.00, 66.0, 8.1240
1.81700, 2.00, 75.0, 8.6603
1.81900, 2.00, 68.0, 8.2462
1.82100, 2.00, 63.0, 7.9373
1.82300, 2.00, 69.0, 8.3066
1.82500, 2.00, 79.0, 8.8882
1.82700, 2.00, 85.0, 9.2195
1.82900, 2.00, 85.0, 9.2195
1.83100, 2.00, 64.0, 8.0000
1.83300, 2.00, 64.0, 8.0000
1.83500, 2.00, 59.0, 7.6811
1.83700, 2.00, 61.0, 7.8102
1.83900, 2.00, 73.0, 8.5440
1.84100, 2.00, 58.0, 7.6158
1.84300, 2.00, 60.0, 7.7460
1.84500, 2.00, 44.0, 6.6332
1.84700, 2.00, 59.0, 7.6811
1.84900, 2.00, 64.0, 8.0000
1.85100, 2.00, 67.0, 8.1854
1.85300, 2.00, 59.0, 7.6811
1.85500, 2.00, 50.0, 7.0711
1.85700, 2.00, 42.0, 6.4807
1.85900, 2.00, 41.0, 6.4031
1.86100, 2.00, 63.0, 7.9373
1.86300, 2.00, 58.0, 7.6158
1.86500, 2.00, 59.0, 7.6811
1.86700, 2.00, 50.0, 7.0711
1.86900, 2.00, 54.0, 7.3485
1.87100, 2.00, 63.0, 7.9373
1.87300, 2.00, 56.0, 7.4833
1.87500, 2.00, 48.0, 6.9282
1.87700, 2.00, 47.0, 6.8557
1.87900, 2.00, 32.0, 5.6569
1.88100, 2.00, 38.0, 6.1644
1.88300, 2.00, 44.0, 6.6332
1.88500, 2.00, 43.0, 6.5574
1.88700, 2.00, 53.0, 7.2801
1.88900, 2.00, 42.0, 6.4807
1.89100, 2.00, 37.0, 6.0828
1.89300, 2.00, 47.0, 6.8557
1.89500, 2.00, 43.0, 6.5574
1.89700, 2.00, 49.0, 7.0000
1.89900, 2.00, 41.0, 6.4031
1.90100, 2.00, 43.0, 6.5574
1.90300, 2.00, 36.0, 6.0000
1.90500, 2.00, 55.0, 7.4162
1.90700, 2.00, 60.0, 7.7460
1.90900, 2.00, 44.0, 6.6332
1.91100, 2.00, 41.0, 6.4031
1.91300, 2.00, 33.0, 5.7446
1.91500, 2.00, 36.0, 6.0000
1.91700, 2.00, 36.0, 6.0000
1.91900, 2.00, 42.0, 6.4807
1.92100, 2.00, 29.0, 5.3852
1.92300, 2.00, 44.0, 6.6332
1.92500, 2.00, 33.0, 5.7446
1.92700, 2.00, 44.0, 6.6332
1.92900, 2.00, 40.0, 6.3246
1.93100, 2.00, 27.0, 5.1962
1.93300, 2.00, 35.0, 5.9161
1.93500, 2.00, 41.0, 6.4031
1.93700, 2.00, 24.0, 4.8990
1.93900, 2.00, 34.0, 5.8310
1.94100, 2.00, 39.0, 6.2450
1.94300, 2.00, 44.0, 6.6332
1.94500, 2.00, 33.0, 5.7446
1.94700, 2.00, 28.0, 5.2915
1.94900, 2.00, 29.0, 5.3852
1.95100, 2.00, 32.0, 5.6569
1.95300, 2.00, 34.0, 5.8310
1.95500, 2.00, 32.0, 5.6569
1.95700, 2.00, 22.0, 4.6904
1.95900, 2.00, 29.0, 5.3852
1.96100, 2.00, 25.0, 5.0000
1.96300, 2.00, 29.0, 5.3852
1.96500, 2.00, 40.0, 6.3246
1.96700, 2.00, 24.0, 4.8990
1.96900, 2.00, 30.0, 5.4772
1.97100, 2.00, 28.0, 5.2915
1.97300, 2.00, 26.0, 5.0990
1.97500, 2.00, 25.0, 5.0000
1.97700, 2.00, 20.0, 4.4721
1.97900, 2.00, 17.0, 4.1231
1.98100, 2.00, 23.0, 4.7958
1.98300, 2.00, 22.0, 4.6904
1.98500, 2.00, 22.0, 4.6904
1.98700, 2.00, 23.0, 4.7958
1.98900, 2.00, 16.0, 4.0000
1.99100, 2.00, 37.0, 6.0828
1.99300, 2.00, 16.0, 4.0000
1.99500, 2.00, 28.0, 5.2915
1.99700, 2.00, 23.0, 4.7958
1.99900, 2.00, 26.0, 5.0990
2.00100, 2.00, 20.0, 4.4721
2.00300, 2.00, 25.0, 5.0000
2.00500, 2.00, 22.0, 4.6904
2.00700, 2.00, 21.0, 4.5826
2.00900, 2.00, 25.0, 5.0000
2.01100, 2.00, 24.0, 4.8990
2.01300, 2.00, 22.0, 4.6904
2.01500, 2.00, 23.0, 4.7958
2.01700, 2.00, 28.0, 5.2915
2.01900, 2.00, 26.0, 5.0990
2.02100, 2.00, 31.0, 5.5678
2.02300, 2.00, 21.0, 4.5826
2.02500, 2.00, 22.0, 4.6904
2.02700, 2.00, 17.0, 4.1231
2.02900, 2.00, 27.0, 5.1962
2.03100, 2.00, 21.0, 4.5826
2.03300, 2.00, 26.0, 5.0990
2.03500, 2.00, 32.0, 5.6569
2.03700, 2.00, 37.0, 6.0828
2.03900, 2.00, 30.0, 5.4772
2.04100, 2.00, 25.0, 5.0000
2.04300, 2.00, 31.0, 5.5678
2.04500, 2.00, 33.0, 5.7446
2.04700, 2.00, 27.0, 5.1962
2.04900, 2.00, 19.0, 4.3589
2.05100, 2.00, 25.0, 5.0000
2.05300, 2.00, 20.0, 4.4721
2.05500, 2.00, 16.0, 4.0000
2.05700, 2.00, 10.0, 3.1623
2.05900, 2.00, 33.0, 5.7446
2.06100, 2.00, 31.0, 5.5678
2.06300, 2.00, 34.0, 5.8310
2.06500, 2.00, 29.0, 5.3852
2.06700, 2.00, 24.0, 4.8990
2.06900, 2.00, 31.0, 5.5678
2.07100, 2.00, 30.0, 5.4772
2.07300, 2.00, 22.0, 4.6904
2.07500, 2.00, 38.0, 6.1644
2.07700, 2.00, 10.0, 3.1623
2.07900, 2.00, 26.0, 5.0990
2.08100, 2.00, 18.0, 4.2426
2.08300, 2.00, 29.0, 5.3852
2.08500, 2.00, 35.0, 5.9161
2.08700, 2.00, 38.0, 6.1644
2.08900, 2.00, 23.0, 4.7958
2.09100, 2.00, 16.0, 4.0000
2.09300, 2.00, 25.0, 5.0000
2.09500, 2.00, 31.0, 5.5678
2.09700, 2.00, 24.0, 4.8990
2.09900, 2.00, 21.0, 4.5826
2.10100, 2.00, 20.0, 4.4721
2.10300, 2.00, 20.0, 4.4721
2.10500, 2.00, 28.0, 5.2915
2.10700, 2.00, 30.0, 5.4772
2.10900, 2.00, 24.0, 4.8990
2.11100, 2.00, 20.0, 4.4721
2.11300, 2.00, 24.0, 4.8990
2.11500, 2.00, 25.0, 5.0000
2.11700, 2.00, 25.0, 5.0000
2.11900, 2.00, 31.0, 5.5678
2.12100, 2.00, 18.0, 4.2426
2.12300, 2.00, 19.0, 4.3589
2.12500, 2.00, 18.0, 4.2426
2.12700, 2.00, 27.0, 5.1962
2.12900, 2.00, 28.0, 5.2915
2.13100, 2.00, 16.0, 4.0000
2.13300, 2.00, 25.0, 5.0000
2.13500, 2.00, 22.0, 4.6904
2.13700, 2.00, 20.0, 4.4721
2.13900, 2.00, 26.0, 5.0990
2.14100, 2.00, 23.0, 4.7958
2.14300, 2.00, 20.0, 4.4721
2.14500, 2.00, 19.0, 4.3589
2.14700, 2.00, 23.0, 4.7958
2.14900, 2.00, 23.0, 4.7958
2.15100, 2.00, 27.0, 5.1962
2.15300, 2.00, 15.0, 3.8730
2.15500, 2.00, 18.0, 4.2426
2.15700, 2.00, 26.0, 5.0990
2.15900, 2.00, 20.0, 4.4721
2.16100, 2.00, 34.0, 5.8310
2.16300, 2.00, 29.0, 5.3852
2.16500, 2.00, 21.0, 4.5826
2.16700, 2.00, 23.0, 4.7958
2.16900, 2.00, 33.0, 5.7446
2.17100, 2.00, 18.0, 4.2426
2.17300, 2.00, 24.0, 4.8990
2.17500, 2.00, 33.0, 5.7446
2.17700, 2.00, 26.0, 5.0990
2.17900, 2.00, 32.0, 5.6569
2.18100, 2.00, 22.0, 4.6904
2.18300, 2.00, 24.0, 4.8990
2.18500, 2.00, 36.0, 6.0000
2.18700, 2.00, 28.0, 5.2915
2.18900, 2.00, 19.0, 4.3589
2.19100, 2.00, 31.0, 5.5678
2.19300, 2.00, 25.0, 5.0000
2.19500, 2.00, 25.0, 5.0000
2.19700, 2.00, 25.0, 5.0000
2.19900, 2.00, 17.0, 4.1231
2.20100, 2.00, 21.0, 4.5826
2.20300, 2.00, 19.0, 4.3589
2.20500, 2.00, 25.0, 5.0000
2.20700, 2.00, 33.0, 5.7446
2.20900, 2.00, 19.0, 4.3589
2.21100, 2.00, 20.0, 4.4721
2.21300, 2.00, 19.0, 4.3589
2.21500, 2.00, 27.0, 5.1962
2.21700, 2.00, 21.0, 4.5826
2.21900, 2.00, 14.0, 3.7417
2.22100, 2.00, 21.0, 4.5826
2.22300, 2.00, 26.0, 5.0990
2.22500, 2.00, 22.0, 4.6904
2.22700, 2.00, 28.0, 5.2915
2.22900, 2.00, 16.0, 4.0000
2.23100, 2.00, 19.0, 4.3589
2.23300, 2.00, 15.0, 3.8730
2.23500, 2.00, 28.0, 5.2915
2.23700, 2.00, 32.0, 5.6569
2.23900, 2.00, 21.0, 4.5826
2.24100, 2.00, 15.0, 3.8730
2.24300, 2.00, 17.0, 4.1231
2.24500, 2.00, 19.0, 4.3589
2.24700, 2.00, 22.0, 4.6904
2.24900, 2.00, 27.0, 5.1962
2.25100, 2.00, 41.0, 6.4031
2.25300, 2.00, 15.0, 3.8730
2.25500, 2.00, 17.0, 4.1231
2.25700, 2.00, 26.0, 5.0990
2.25900, 2.00, 17.0, 4.1231
2.26100, 2.00, 28.0, 5.2915
2.26300, 2.00, 19.0, 4.3589
2.26500, 2.00, 25.0, 5.0000
2.26700, 2.00, 16.0, 4.0000
2.26900, 2.00, 19.0, 4.3589
2.27100, 2.00, 30.0, 5.4772
2.27300, 2.00, 11.0, 3.3166
2.27500, 2.00, 25.0, 5.0000
2.27700, 2.00, 23.0, 4.7958
2.27900, 2.00, 22.0, 4.6904
2.28100, 2.00, 33.0, 5.7446
2.28300, 2.00, 30.0, 5.4772
2.28500, 2.00, 26.0, 5.0990
2.28700, 2.00, 22.0, 4.6904
2.28900, 2.00, 26.0, 5.0990
2.29100, 2.00, 30.0, 5.4772
2.29300, 2.00, 29.0, 5.3852
2.29500, 2.00, 26.0, 5.0990
2.29700, 2.00, 20.0, 4.4721
2.29900, 2.00, 19.0, 4.3589
2.30100, 2.00, 19.0, 4.3589
2.30300, 2.00, 19.0, 4.3589
2.30500, 2.00, 23.0, 4.7958
2.30700, 2.00, 20.0, 4.4721
2.30900, 2.00, 15.0, 3.8730
2.31100, 2.00, 15.0, 3.8730
2.31300, 2.00, 22.0, 4.6904
2.31500, 2.00, 31.0, 5.5678
2.31700, 2.00, 30.0, 5.4772
2.31900, 2.00, 24.0, 4.8990
2.32100, 2.00, 25.0, 5.0000
2.32300, 2.00, 27.0, 5.1962
2.32500, 2.00, 17.0, 4.1231
2.32700, 2.00, 25.0, 5.0000
2.32900, 2.00, 25.0, 5.0000
2.33100, 2.00, 23.0, 4.7958
2.33300, 2.00, 15.0, 3.8730
2.33500, 2.00, 18.0, 4.2426
2.33700, 2.00, 16.0, 4.0000
2.33900, 2.00, 25.0, 5.0000
2.34100, 2.00, 14.0, 3.7417
2.34300, 2.00, 19.0, 4.3589
2.34500, 2.00, 24.0, 4.8990
2.34700, 2.00, 18.0, 4.2426
2.34900, 2.00, 35.0, 5.9161
2.35100, 2.00, 21.0, 4.5826
2.35300, 2.00, 24.0, 4.8990
2.35500, 2.00, 21.0, 4.5826
2.35700, 2.00, 23.0, 4.7958
2.35900, 2.00, 29.0, 5.3852
2.36100, 2.00, 21.0, 4.5826
2.36300, 2.00, 22.0, 4.6904
2.36500, 2.00, 18.0, 4.2426
2.36700, 2.00, 14.0, 3.7417
2.36900, 2.00, 24.0, 4.8990
2.37100, 2.00, 22.0, 4.6904
2.37300, 2.00, 25.0, 5.0000
2.37500, 2.00, 23.0, 4.7958
2.37700, 2.00, 23.0, 4.7958
2.37900, 2.00, 25.0, 5.0000
2.38100, 2.00, 22.0, 4.6904
2.38300, 2.00, 20.0, 4.4721
2.38500, 2.00, 16.0, 4.0000
2.38700, 2.00, 16.0, 4.0000
2.38900, 2.00, 13.0, 3.6056
2.39100, 2.00, 18.0, 4.2426
2.39300, 2.00, 27.0, 5.1962
2.39500, 2.00, 25.0, 5.0000
2.39700, 2.00, 19.0, 4.3589
2.39900, 2.00, 27.0, 5.1962
2.40100, 2.00, 21.0, 4.5826
2.40300, 2.00, 26.0, 5.0990
2.40500, 2.00, 16.0, 4.0000
2.40700, 2.00, 22.0, 4.6904
2.40900, 2.00, 21.0, 4.5826
2.41100, 2.00, 17.0, 4.1231
2.41300, 2.00, 25.0, 5.0000
2.41500, 2.00, 18.0, 4.2426
2.41700, 2.00, 19.0, 4.3589
2.41900, 2.00, 22.0, 4.6904
2.42100, 2.00, 16.0, 4.0000
2.42300, 2.00, 18.0, 4.2426
2.42500, 2.00, 15.0, 3.8730
2.42700, 2.00, 18.0, 4.2426
2.42900, 2.00, 23.0, 4.7958
2.43100, 2.00, 25.0, 5.0000
2.43300, 2.00, 22.0, 4.6904
2.43500, 2.00, 31.0, 5.5678
2.43700, 2.00, 28.0, 5.2915
2.43900, 2.00, 26.0, 5.0990
2.44100, 2.00, 28.0, 5.2915
2.44300, 2.00, 24.0, 4.8990
2.44500, 2.00, 22.0, 4.6904
2.44700, 2.00, 29.0, 5.3852
2.44900, 2.00, 20.0, 4.4721
2.45100, 2.00, 25.0, 5.0000
2.45300, 2.00, 18.0, 4.2426
2.45500, 2.00, 25.0, 5.0000
2.45700, 2.00, 26.0, 5.0990
2.45900, 2.00, 22.0, 4.6904
2.46100, 2.00, 35.0, 5.9161
2.46300, 2.00, 25.0, 5.0000
2.46500, 2.00, 23.0, 4.7958
2.46700, 2.00, 32.0, 5.6569
2.46900, 2.00, 18.0, 4.2426
2.47100, 2.00, 30.0, 5.4772
2.47300, 2.00, 19.0, 4.3589
2.47500, 2.00, 22.0, 4.6904
2.47700, 2.00, 28.0, 5.2915
2.47900, 2.00, 37.0, 6.0828
2.48100, 2.00, 34.0, 5.8310
2.48300, 2.00, 26.0, 5.0990
2.48500, 2.00, 36.0, 6.0000
2.48700, 2.00, 27.0, 5.1962
2.48900, 2.00, 27.0, 5.1962
2.49100, 2.00, 35.0, 5.9161
2.49300, 2.00, 31.0, 5.5678
2.49500, 2.00, 26.0, 5.0990
2.49700, 2.00, 22.0, 4.6904
2.49900, 2.00, 32.0, 5.6569
2.50100, 2.00, 34.0, 5.8310
2.50300, 2.00, 33.0, 5.7446
2.50500, 2.00, 34.0, 5.8310
2.50700, 2.00, 24.0, 4.8990
2.50900, 2.00, 24.0, 4.8990
2.51100, 2.00, 24.0, 4.8990
2.51300, 2.00, 32.0, 5.6569
2.51500, 2.00, 29.0, 5.3852
2.51700, 2.00, 26.0, 5.0990
2.51900, 2.00, 29.0, 5.3852
2.52100, 2.00, 33.0, 5.7446
2.52300, 2.00, 39.0, 6.2450
2.52500, 2.00, 31.0, 5.5678
2.52700, 2.00, 27.0, 5.1962
2.52900, 2.00, 34.0, 5.8310
2.53100, 2.00, 22.0, 4.6904
2.53300, 2.00, 38.0, 6.1644
2.53500, 2.00, 33.0, 5.7446
2.53700, 2.00, 42.0, 6.4807
2.53900, 2.00, 32.0, 5.6569
2.54100, 2.00, 28.0, 5.2915
2.54300, 2.00, 31.0, 5.5678
2.54500, 2.00, 40.0, 6.3246
2.54700, 2.00, 37.0, 6.0828
2.54900, 2.00, 29.0, 5.3852
2.55100, 2.00, 19.0, 4.3589
2.55300, 2.00, 22.0, 4.6904
2.55500, 2.00, 23.0, 4.7958
2.55700, 2.00, 30.0, 5.4772
2.55900, 2.00, 36.0, 6.0000
2.56100, 2.00, 25.0, 5.0000
2.56300, 2.00, 27.0, 5.1962
2.56500, 2.00, 22.0, 4.6904
2.56700, 2.00, 34.0, 5.8310
2.56900, 2.00, 31.0, 5.5678
2.57100, 2.00, 45.0, 6.7082
2.57300, 2.00, 36.0, 6.0000
2.57500, 2.00, 30.0, 5.4772
2.57700, 2.00, 39.0, 6.2450
2.57900, 2.00, 28.0, 5.2915
2.58100, 2.00, 51.0, 7.1414
2.58300, 2.00, 41.0, 6.4031
2.58500, 2.00, 39.0, 6.2450
2.58700, 2.00, 40.0, 6.3246
2.58900, 2.00, 40.0, 6.3246
2.59100, 2.00, 42.0, 6.4807
2.59300, 2.00, 45.0, 6.7082
2.59500, 2.00, 37.0, 6.0828
2.59700, 2.00, 42.0, 6.4807
2.59900, 2.00, 41.0, 6.4031
2.60100, 2.00, 39.0, 6.2450
2.60300, 2.00, 55.0, 7.4162
2.60500, 2.00, 47.0, 6.8557
2.60700, 2.00, 46.0, 6.7823
2.60900, 2.00, 49.0, 7.0000
2.61100, 2.00, 61.0, 7.8102
2.61300, 2.00, 76.0, 8.7178
2.61500, 2.00, 66.0, 8.1240
2.61700, 2.00, 71.0, 8.4261
2.61900, 2.00, 38.0, 6.1644
2.62100, 2.00, 62.0, 7.8740
2.62300, 2.00, 61.0, 7.8102
2.62500, 2.00, 71.0, 8.4261
2.62700, 2.00, 52.0, 7.2111
2.62900, 2.00, 54.0, 7.3485
2.63100, 2.00, 54.0, 7.3485
2.63300, 2.00, 67.0, 8.1854
2.63500, 2.00, 60.0, 7.7460
2.63700, 2.00, 55.0, 7.4162
2.63900, 2.00, 54.0, 7.3485
2.64100, 2.00, 69.0, 8.3066
2.64300, 2.00, 74.0, 8.6023
2.64500, 2.00, 93.0, 9.6437
2.64700, 2.00, 75.0, 8.6603
2.64900, 2.00, 93.0, 9.6437
2.65100, 2.00, 82.0, 9.0554
2.65300, 2.00, 74.0, 8.6023
2.65500, 2.00, 78.0, 8.8318
2.65700, 2.00, 95.0, 9.7468
2.65900, 2.00, 110.0, 10.4881
2.66100, 2.00, 98.0, 9.8995
2.66300, 2.00, 80.0, 8.9443
2.66500, 2.00, 99.0, 9.9499
2.66700, 2.00, 104.0, 10.1980
2.66900, 2.00, 109.0, 10.4403
2.67100, 2.00, 115.0, 10.7238
2.67300, 2.00, 95.0, 9.7468
2.67500, 2.00, 94.0, 9.6954
2.67700, 2.00, 121.0, 11.0000
2.67900, 2.00, 114.0, 10.6771
2.68100, 2.00, 118.0, 10.8628
2.68300, 2.00, 134.0, 11.5758
2.68500, 2.00, 119.0, 10.9087
2.68700, 2.00, 132.0, 11.4891
2.68900, 2.00, 151.0, 12.2882
2.69100, 2.00, 165.0, 12.8452
2.69300, 2.00, 159.0, 12.6095
2.69500, 2.00, 173.0, 13.1529
2.69700, 2.00, 141.0, 11.8743
2.69900, 2.00, 147.0, 12.1244
2.70100, 2.00, 186.0, 13.6382
2.70300, 2.00, 181.0, 13.4536
2.70500, 2.00, 181.0, 13.4536
2.70700, 2.00, 174.0, 13.1909
2.70900, 2.00, 176.0, 13.2665
2.71100, 2.00, 220.0, 14.8324
2.71300, 2.00, 186.0, 13.6382
2.71500, 2.00, 215.0, 14.6629
2.71700, 2.00, 195.0, 13.9642
2.71900, 2.00, 222.0, 14.8997
2.72100, 2.00, 223.0, 14.9332
2.72300, 2.00, 290.0, 17.0294
2.72500, 2.00, 299.0, 17.2916
2.72700, 2.00, 282.0, 16.7929
2.72900, 2.00, 279.0, 16.7033
2.73100, 2.00, 261.0, 16.1555
2.73300, 2.00, 302.0, 17.3781
2.73500, 2.00, 354.0, 18.8149
2.73700, 2.00, 377.0, 19.4165
2.73900, 2.00, 407.0, 20.1742
2.74100, 2.00, 333.0, 18.2483
2.74300, 2.00, 336.0, 18.3303
2.74500, 2.00, 363.0, 19.0526
2.74700, 2.00, 401.0, 20.0250
2.74900, 2.00, 390.0, 19.7484
2.75100, 2.00, 374.0, 19.3391
2.75300, 2.00, 373.0, 19.3132
2.75500, 2.00, 403.0, 20.0749
2.75700, 2.00, 444.0, 21.0713
2.75900, 2.00, 467.0, 21.6102
2.76100, 2.00, 557.0, 23.6008
2.76300, 2.00, 555.0, 23.5584
2.76500, 2.00, 564.0, 23.7487
2.76700, 2.00, 553.0, 23.5160
2.76900, 2.00, 572.0, 23.9165
2.77100, 2.00, 651.0, 25.5147
2.77300, 2.00, 669.0, 25.8650
2.77500, 2.00, 620.0, 24.8998
2.77700, 2.00, 667.0, 25.8263
2.77900, 2.00, 694.0, 26.3439
2.78100, 2.00, 788.0, 28.0713
2.78300, 2.00, 824.0, 28.7054
2.78500, 2.00, 772.0, 27.7849
2.78700, 2.00, 825.0, 28.7228
2.78900, 2.00, 753.0, 27.4408
2.79100, 2.00, 828.0, 28.7750
2.79300, 2.00, 981.0, 31.3209
2.79500, 2.00, 959.0, 30.9677
2.79700, 2.00, 1001.0, 31.6386
2.79900, 2.00, 885.0, 29.7489
2.80100, 2.00, 886.0, 29.7658
2.80300, 2.00, 984.0, 31.3688
2.80500, 2.00, 1100.0, 33.1662
2.80700, 2.00, 1234.0, 35.1283
2.80900, 2.00, 1173.0, 34.2491
2.81100, 2.00, 1076.0, 32.8024
2.81300, 2.00, 1087.0, 32.9697
2.81500, 2.00, 1239.0, 35.1994
2.81700, 2.00, 1441.0, 37.9605
2.81900, 2.00, 1520.0, 38.9872
2.82100, 2.00, 1391.0, 37.2961
2.82300, 2.00, 1247.0, 35.3129
2.82500, 2.00, 1258.0, 35.4683
2.82700, 2.00, 1480.0, 38.4708
2.82900, 2.00, 1659.0, 40.7308
2.83100, 2.00, 1827.0, 42.7434
2.83300, 2.00, 1637.0, 40.4599
2.83500, 2.00, 1405.0, 37.4833
2.83700, 2.00, 1389.0, 37.2693
2.83900, 2.00, 1710.0, 41.3521
2.84100, 2.00, 2212.0, 47.0319
2.84300, 2.00, 2495.0, 49.9500
2.84500, 2.00, 2374.0, 48.7237
2.84700, 2.00, 1971.0, 44.3959
2.84900, 2.00, 1745.0, 41.7732
2.85100, 2.00, 2029.0, 45.0444
2.85300, 2.00, 2774.0, 52.6688
2.85500, 2.00, 3560.0, 59.6657
2.85700, 2.00, 3934.0, 62.7216
2.85900, 2.00, 3584.0, 59.8665
2.86100, 2.00, 3071.0, 55.4166
2.86300, 2.00, 2887.0, 53.7308
2.86500, 2.00, 3629.0, 60.2412
2.86700, 2.00, 4949.0, 70.3491
2.86900, 2.00, 6520.0, 80.7465
2.87100, 2.00, 7132.0, 84.4512
2.87300, 2.00, 7060.0, 84.0238
2.87500, 2.00, 6240.0, 78.9937
2.87700, 2.00, 5625.0, 75.0000
2.87900, 2.00, 5761.0, 75.9013
2.88100, 2.00, 7369.0, 85.8429
2.88300, 2.00, 9754.0, 98.7623
2.88500, 2.00, 11685.0, 108.0972
2.88700, 2.00, 12975.0, 113.9079
2.88900, 2.00, 12195.0, 110.4310
2.89100, 2.00, 10407.0, 102.0147
2.89300, 2.00, 7987.0, 89.3700
2.89500, 2.00, 5601.0, 74.8398
2.89700, 2.00, 4154.0, 64.4515
2.89900, 2.00, 3499.0, 59.1523
2.90100, 2.00, 4055.0, 63.6789
2.90300, 2.00, 5767.0, 75.9408
2.90500, 2.00, 8137.0, 90.2053
2.90700, 2.00, 11240.0, 106.0189
2.90900, 2.00, 13806.0, 117.4989
2.91100, 2.00, 16193.0, 127.2517
2.91300, 2.00, 16994.0, 130.3610
2.91500, 2.00, 16861.0, 129.8499
2.91700, 2.00, 15409.0, 124.1330
2.91900, 2.00, 13494.0, 116.1637
2.92100, 2.00, 11452.0, 107.0140
2.92300, 2.00, 9307.0, 96.4728
2.92500, 2.00, 7571.0, 87.0115
2.92700, 2.00, 6263.0, 79.1391
2.92900, 2.00, 4925.0, 70.1783
2.93100, 2.00, 3919.0, 62.6019
2.93300, 2.00, 3057.0, 55.2901
2.93500, 2.00, 2225.0, 47.1699
2.93700, 2.00, 1598.0, 39.9750
2.93900, 2.00, 1092.0, 33.0454
2.94100, 2.00, 810.0, 28.4605
2.94300, 2.00, 650.0, 25.4951
2.94500, 2.00, 451.0, 21.2368
2.94700, 2.00, 343.0, 18.5203
2.94900, 2.00, 272.0, 16.4924
2.95100, 2.00, 175.0, 13.2288
2.95300, 2.00, 117.0, 10.8167
2.95500, 2.00, 60.0, 7.7460
2.95700, 2.00, 40.0, 6.3246
2.95900, 2.00, 30.0, 5.4772
2.96100, 2.00, 28.0, 5.2915
2.96300, 2.00, 28.0, 5.2915
2.96500, 2.00, 34.0, 5.8310
2.96700, 2.00, 61.0, 7.8102
2.96900, 2.00, 39.0, 6.2450
2.97100, 2.00, 34.0, 5.8310
2.97300, 2.00, 18.0, 4.2426
2.97500, 2.00, 30.0, 5.4772
2.97700, 2.00, 24.0, 4.8990
2.97900, 2.00, 23.0, 4.7958
2.98100, 2.00, 22.0, 4.6904
2.98300, 2.00, 22.0, 4.6904
2.98500, 2.00, 24.0, 4.8990
2.98700, 2.00, 21.0, 4.5826
2.98900, 2.00, 21.0, 4.5826
2.99100, 2.00, 26.0, 5.0990
2.99300, 2.00, 24.0, 4.8990
2.99500, 2.00, 16.0, 4.0000
2.99700, 2.00, 11.0, 3.3166
2.99900, 2.00, 22.0, 4.6904
3.00100, 2.00, 22.0, 4.6904
3.00300, 2.00, 28.0, 5.2915
3.00500, 2.00, 17.0, 4.1231
3.00700, 2.00, 17.0, 4.1231
3.00900, 2.00, 18.0, 4.2426
3.01100, 2.00, 27.0, 5.1962
3.01300, 2.00, 18.0, 4.2426
3.01500, 2.00, 15.0, 3.8730
3.01700, 2.00, 16.0, 4.0000
3.01900, 2.00, 14.0, 3.7417
3.02100, 2.00, 18.0, 4.2426
3.02300, 2.00, 19.0, 4.3589
3.02500, 2.00, 10.0, 3.1623
3.02700, 2.00, 22.0, 4.6904
3.02900, 2.00, 16.0, 4.0000
3.03100, 2.00, 12.0, 3.4641
3.03300, 2.00, 16.0, 4.0000
3.03500, 2.00, 14.0, 3.7417
3.03700, 2.00, 7.0, 2.6458
3.03900, 2.00, 18.0, 4.2426
3.04100, 2.00, 12.0, 3.4641
3.04300, 2.00, 15.0, 3.8730
3.04500, 2.00, 13.0, 3.6056
3.04700, 2.00, 14.0, 3.7417
3.04900, 2.00, 17.0, 4.1231
3.05100, 2.00, 14.0, 3.7417
3.05300, 2.00, 11.0, 3.3166
3.05500, 2.00, 20.0, 4.4721
3.05700, 2.00, 15.0, 3.8730
3.05900, 2.00, 13.0, 3.6056
3.06100, 2.00, 10.0, 3.1623
3.06300, 2.00, 13.0, 3.6056
3.06500, 2.00, 14.0, 3.7417
3.06700, 2.00, 16.0, 4.0000
3.06900, 2.00, 23.0, 4.7958
3.07100, 2.00, 14.0, 3.7417
3.07300, 2.00, 8.0, 2.8284
3.07500, 2.00, 12.0, 3.4641
3.07700, 2.00, 8.0, 2.8284
3.07900, 2.00, 13.0, 3.6056
3.08100, 2.00, 5.0, 2.2361
3.08300, 2.00, 4.0, 2.0000
3.08500, 2.00, 11.0, 3.3166
3.08700, 2.00, 11.0, 3.3166
3.08900, 2.00, 9.0, 3.0000
3.09100, 2.00, 7.0, 2.6458
3.09300, 2.00, 9.0, 3.0000
3.09500, 2.00, 8.0, 2.8284
3.09700, 2.00, 5.0, 2.2361
3.09900, 2.00, 9.0, 3.0000
3.10100, 2.00, 13.0, 3.6056
3.10300, 2.00, 11.0, 3.3166
3.10500, 2.00, 15.0, 3.8730
3.10700, 2.00, 7.0, 2.6458
3.10900, 2.00, 7.0, 2.6458
3.11100, 2.00, 8.0, 2.8284
3.11300, 2.00, 10.0, 3.1623
3.11500, 2.00, 8.0, 2.8284
3.11700, 2.00, 1.0, 1.0000
3.11900, 2.00, 9.0, 3.0000
3.12100, 2.00, 6.0, 2.4495
3.12300, 2.00, 16.0, 4.0000
3.12500, 2.00, 5.0, 2.2361
3.12700, 2.00, 5.0, 2.2361
3.12900, 2.00, 4.0, 2.0000
3.13100, 2.00, 1.0, 1.0000
3.13300, 2.00, 2.0, 1.4142
3.13500, 2.00, 4.0, 2.0000
3.13700, 2.00, 6.0, 2.4495
3.13900, 2.00, 7.0, 2.6458
3.14100, 2.00, 11.0, 3.3166
3.14300, 2.00, 7.0, 2.6458
3.14500, 2.00, 6.0, 2.4495
3.14700, 2.00, 8.0, 2.8284
3.14900, 2.00, 6.0, 2.4495
3.15100, 2.00, 4.0, 2.0000
3.15300, 2.00, 7.0, 2.6458
3.15500, 2.00, 10.0, 3.1623
3.15700, 2.00, 11.0, 3.3166
3.15900, 2.00, 7.0, 2.6458
3.16100, 2.00, 4.0, 2.0000
3.16300, 2.00, 4.0, 2.0000
3.16500, 2.00, 8.0, 2.8284
3.16700, 2.00, 9.0, 3.0000
3.16900, 2.00, 4.0, 2.0000
3.17100, 2.00, 6.0, 2.4495
3.17300, 2.00, 5.0, 2.2361
3.17500, 2.00, 2.0, 1.4142
3.17700, 2.00, 5.0, 2.2361
3.17900, 2.00, 7.0, 2.6458
3.18100, 2.00, 7.0, 2.6458
3.18300, 2.00, 3.0, 1.7321
3.18500, 2.00, 2.0, 1.4142
3.18700, 2.00, 1.0, 1.0000
3.18900, 2.00, 6.0, 2.4495
3.19100, 2.00, 4.0, 2.0000
3.19300, 2.00, 5.0, 2.2361
3.19500, 2.00, 6.0, 2.4495
3.19700, 2.00, 2.0, 1.4142
3.19900, 2.00, 5.0, 2.2361
3.20100, 2.00, 5.0, 2.2361
3.20300, 2.00, 1.0, 1.0000
3.20500, 2.00, 3.0, 1.7321
3.20700, 2.00, 3.0, 1.7321
3.20900, 2.00, 5.0, 2.2361
3.21100, 2.00, 6.0, 2.4495
3.21300, 2.00, 5.0, 2.2361
3.21500, 2.00, 6.0, 2.4495
3.21700, 2.00, 4.0, 2.0000
3.21900, 2.00, 4.0, 2.0000
3.22100, 2.00, 5.0, 2.2361
3.22300, 2.00, 4.0, 2.0000
3.22500, 2.00, 4.0, 2.0000
3.22700, 2.00, 1.0, 1.0000
3.22900, 2.00, 4.0, 2.0000
3.23100, 2.00, 3.0, 1.7321
3.23300, 2.00, 3.0, 1.7321
3.23500, 2.00, 7.0, 2.6458
3.23700, 2.00, 4.0, 2.0000
3.23900, 2.00, 4.0, 2.0000
3.24100, 2.00, 2.0, 1.4142
3.24300, 2.00, 7.0, 2.6458
3.24500, 2.00, 6.0, 2.4495
3.24700, 2.00, 3.0, 1.7321
3.24900, 2.00, 1.0, 1.0000
3.25100, 2.00, 2.0, 1.4142
3.25300, 2.00, 6.0, 2.4495
3.25500, 2.00, 10.0, 3.1623
3.25700, 2.00, 3.0, 1.7321
3.25900, 2.00, 5.0, 2.2361
3.26100, 2.00, 1.0, 1.0000
3.26300, 2.00, 6.0, 2.4495
3.26500, 2.00, 4.0, 2.0000
3.26700, 2.00, 3.0, 1.7321
3.26900, 2.00, 5.0, 2.2361
3.27100, 2.00, 6.0, 2.4495
3.27300, 2.00, 1.0, 1.0000
3.27500, 2.00, 3.0, 1.7321
3.27700, 2.00, 2.0, 1.4142
3.27900, 2.00, 3.0, 1.7321
3.28100, 2.00, 3.0, 1.7321
3.28300, 2.00, 5.0, 2.2361
3.28500, 2.00, 3.0, 1.7321
3.28700, 2.00, 4.0, 2.0000
3.28900, 2.00, 3.0, 1.7321
3.29100, 2.00, 4.0, 2.0000
3.29300, 2.00, 1.0, 1.0000
3.29500, 2.00, 7.0, 2.6458
3.29700, 2.00, 1.0, 1.0000
3.29900, 2.00, 6.0, 2.4495
3.30100, 2.00, 0.0, 0.0000
3.30300, 2.00, 1.0, 1.0000
3.30500, 2.00, 6.0, 2.4495
3.30700, 2.00, 6.0, 2.4495
3.30900, 2.00, 2.0, 1.4142
3.31100, 2.00, 2.0, 1.4142
3.31300, 2.00, 4.0, 2.0000
3.31500, 2.00, 4.0, 2.0000
3.31700, 2.00, 0.0, 0.0000
3.31900, 2.00, 1.0, 1.0000
3.32100, 2.00, 3.0, 1.7321
3.32300, 2.00, 2.0, 1.4142
3.32500, 2.00, 2.0, 1.4142
3.32700, 2.00, 2.0, 1.4142
3.32900, 2.00, 4.0, 2.0000
3.33100, 2.00, 3.0, 1.7321
3.33300, 2.00, 1.0, 1.0000
3.33500, 2.00, 1.0, 1.0000
3.33700, 2.00, 1.0, 1.0000
3.33900, 2.00, 4.0, 2.0000
3.34100, 2.00, 2.0, 1.4142
3.34300, 2.00, 2.0, 1.4142
3.34500, 2.00, 6.0, 2.4495
3.34700, 2.00, 2.0, 1.4142
3.34900, 2.00, 5.0, 2.2361
3.35100, 2.00, 1.0, 1.0000
3.35300, 2.00, 4.0, 2.0000
3.35500, 2.00, 3.0, 1.7321
3.35700, 2.00, 2.0, 1.4142
3.35900, 2.00, 0.0, 0.0000
3.36100, 2.00, 2.0, 1.4142
3.36300, 2.00, 1.0, 1.0000
3.36500, 2.00, 0.0, 0.0000
3.36700, 2.00, 1.0, 1.0000
3.36900, 2.00, 3.0, 1.7321
3.37100, 2.00, 1.0, 1.0000
3.37300, 2.00, 1.0, 1.0000
3.37500, 2.00, 2.0, 1.4142
3.37700, 2.00, 1.0, 1.0000
3.37900, 2.00, 1.0, 1.0000
3.38100, 2.00, 1.0, 1.0000
3.38300, 2.00, 1.0, 1.0000
3.38500, 2.00, 3.0, 1.7321
3.38700, 2.00, 5.0, 2.2361
3.38900, 2.00, 1.0, 1.0000
3.39100, 2.00, 0.0, 0.0000
3.39300, 2.00, 2.0, 1.4142
3.39500, 2.00, 3.0, 1.7321
3.39700, 2.00, 1.0, 1.0000
3.39900, 2.00, 0.0, 0.0000
3.40100, 2.00, 2.0, 1.4142
3.40300, 2.00, 5.0, 2.2361
3.40500, 2.00, 1.0, 1.0000
3.40700, 2.00, 3.0, 1.7321
3.40900, 2.00, 0.0, 0.0000
3.41100, 2.00, 5.0, 2.2361
3.41300, 2.00, 1.0, 1.0000
3.41500, 2.00, 2.0, 1.4142
3.41700, 2.00, 3.0, 1.7321
3.41900, 2.00, 4.0, 2.0000
3.42100, 2.00, 4.0, 2.0000
3.42300, 2.00, 0.0, 0.0000
3.42500, 2.00, 3.0, 1.7321
3.42700, 2.00, 1.0, 1.0000
3.42900, 2.00, 1.0, 1.0000
3.43100, 2.00, 1.0, 1.0000
3.43300, 2.00, 2.0, 1.4142
3.43500, 2.00, 2.0, 1.4142
3.43700, 2.00, 1.0, 1.0000
3.43900, 2.00, 1.0, 1.0000
3.44100, 2.00, 2.0, 1.4142
3.44300, 2.00, 3.0, 1.7321
3.44500, 2.00, 2.0, 1.4142
3.44700, 2.00, 1.0, 1.0000
3.44900, 2.00, 1.0, 1.0000
3.45100, 2.00, 5.0, 2.2361
3.45300, 2.00, 2.0, 1.4142
3.45500, 2.00, 3.0, 1.7321
3.45700, 2.00, 3.0, 1.7321
3.45900, 2.00, 0.0, 0.0000
3.46100, 2.00, 2.0, 1.4142
3.46300, 2.00, 2.0, 1.4142
3.46500, 2.00, 2.0, 1.4142
3.46700, 2.00, 0.0, 0.0000
3.46900, 2.00, 0.0, 0.0000
3.47100, 2.00, 0.0, 0.0000
3.47300, 2.00, 3.0, 1.7321
3.47500, 2.00, 1.0, 1.0000
3.47700, 2.00, 1.0, 1.0000
3.47900, 2.00, 2.0, 1.4142
3.48100, 2.00, 0.0, 0.0000
3.48300, 2.00, 4.0, 2.0000
3.48500, 2.00, 2.0, 1.4142
3.48700, 2.00, 3.0, 1.7321
3.48900, 2.00, 3.0, 1.7321
3.49100, 2.00, 0.0, 0.0000
3.49300, 2.00, 4.0, 2.0000
3.49500, 2.00, 3.0, 1.7321
3.49700, 2.00, 2.0, 1.4142
3.49900, 2.00, 0.0, 0.0000
3.50100, 2.00, 2.0, 1.4142
3.50300, 2.00, 2.0, 1.4142
3.50500, 2.00, 5.0, 2.2361
3.50700, 2.00, 2.0, 1.4142
3.50900, 2.00, 1.0, 1.0000
3.51100, 2.00, 2.0, 1.4142
3.51300, 2.00, 0.0, 0.0000
3.51500, 2.00, 1.0, 1.0000
3.51700, 2.00, 2.0, 1.4142
3.51900, 2.00, 2.0, 1.4142
3.52100, 2.00, 0.0, 0.0000
3.52300, 2.00, 3.0, 1.7321
3.52500, 2.00, 1.0, 1.0000
3.52700, 2.00, 1.0, 1.0000
3.52900, 2.00, 1.0, 1.0000
3.53100, 2.00, 2.0, 1.4142
3.53300, 2.00, 3.0, 1.7321
3.53500, 2.00, 1.0, 1.0000
3.53700, 2.00, 0.0, 0.0000
3.53900, 2.00, 1.0, 1.0000
3.54100, 2.00, 1.0, 1.0000
3.54300, 2.00, 0.0, 0.0000
3.54500, 2.00, 2.0, 1.4142
3.54700, 2.00, 3.0, 1.7321
3.54900, 2.00, 3.0, 1.7321
3.55100, 2.00, 1.0, 1.0000
3.55300, 2.00, 2.0, 1.4142
3.55500, 2.00, 2.0, 1.4142
3.55700, 2.00, 1.0, 1.0000
3.55900, 2.00, 0.0, 0.0000
3.56100, 2.00, 1.0, 1.0000
3.56300, 2.00, 3.0, 1.7321
3.56500, 2.00, 0.0, 0.0000
3.56700, 2.00, 0.0, 0.0000
3.56900, 2.00, 1.0, 1.0000
3.57100, 2.00, 2.0, 1.4142
3.57300, 2.00, 0.0, 0.0000
3.57500, 2.00, 0.0, 0.0000
3.57700, 2.00, 0.0, 0.0000
3.57900, 2.00, 2.0, 1.4142
3.58100, 2.00, 2.0, 1.4142
3.58300, 2.00, 2.0, 1.4142
3.58500, 2.00, 0.0, 0.0000
3.58700, 2.00, 0.0, 0.0000
3.58900, 2.00, 1.0, 1.0000
3.59100, 2.00, 2.0, 1.4142
3.59300, 2.00, 0.0, 0.0000
3.59500, 2.00, 2.0, 1.4142
3.59700, 2.00, 0.0, 0.0000
3.59900, 2.00, 2.0, 1.4142
3.60100, 2.00, 5.0, 2.2361
3.60300, 2.00, 0.0, 0.0000
3.60500, 2.00, 2.0, 1.4142
3.60700, 2.00, 2.0, 1.4142
3.60900, 2.00, 1.0, 1.0000
3.61100, 2.00, 1.0, 1.0000
3.61300, 2.00, 3.0, 1.7321
3.61500, 2.00, 0.0, 0.0000
3.61700, 2.00, 0.0, 0.0000
3.61900, 2.00, 0.0, 0.0000
3.62100, 2.00, 2.0, 1.4142
3.62300, 2.00, 0.0, 0.0000
3.62500, 2.00, 2.0, 1.4142
3.62700, 2.00, 4.0, 2.0000
3.62900, 2.00, 2.0, 1.4142
3.63100, 2.00, 3.0, 1.7321
3.63300, 2.00, 2.0, 1.4142
3.63500, 2.00, 0.0, 0.0000
3.63700, 2.00, 1.0, 1.0000
3.63900, 2.00, 1.0, 1.0000
3.64100, 2.00, 0.0, 0.0000
3.64300, 2.00, 2.0, 1.4142
3.64500, 2.00, 0.0, 0.0000
3.64700, 2.00, 1.0, 1.0000
3.64900, 2.00, 2.0, 1.4142
3.65100, 2.00, 0.0, 0.0000
3.65300, 2.00, 1.0, 1.0000
3.65500, 2.00, 1.0, 1.0000
3.65700, 2.00, 1.0, 1.0000
3.65900, 2.00, 0.0, 0.0000
3.66100, 2.00, 1.0, 1.0000
3.66300, 2.00, 0.0, 0.0000
3.66500, 2.00, 1.0, 1.0000
3.66700, 2.00, 2.0, 1.4142
3.66900, 2.00, 1.0, 1.0000
3.67100, 2.00, 1.0, 1.0000
3.67300, 2.00, 0.0, 0.0000
3.67500, 2.00, 0.0, 0.0000
3.67700, 2.00, 2.0, 1.4142
3.67900, 2.00, 3.0, 1.7321
3.68100, 2.00, 4.0, 2.0000
3.68300, 2.00, 2.0, 1.4142
3.68500, 2.00, 0.0, 0.0000
3.68700, 2.00, 1.0, 1.0000
3.68900, 2.00, 0.0, 0.0000
3.69100, 2.00, 0.0, 0.0000
3.69300, 2.00, 1.0, 1.0000
3.69500, 2.00, 1.0, 1.0000
3.69700, 2.00, 2.0, 1.4142
3.69900, 2.00, 3.0, 1.7321
3.70100, 2.00, 0.0, 0.0000
3.70300, 2.00, 0.0, 0.0000
3.70500, 2.00, 0.0, 0.0000
3.70700, 2.00, 1.0, 1.0000
3.70900, 2.00, 3.0, 1.7321
3.71100, 2.00, 1.0, 1.0000
3.71300, 2.00, 0.0, 0.0000
3.71500, 2.00, 1.0, 1.0000
3.71700, 2.00, 1.0, 1.0000
3.71900, 2.00, 1.0, 1.0000
3.72100, 2.00, 0.0, 0.0000
3.72300, 2.00, 2.0, 1.4142
3.72500, 2.00, 1.0, 1.0000
3.72700, 2.00, 2.0, 1.4142
3.72900, 2.00, 0.0, 0.0000
3.73100, 2.00, 0.0, 0.0000
3.73300, 2.00, 1.0, 1.0000
3.73500, 2.00, 0.0, 0.0000
3.73700, 2.00, 3.0, 1.7321
3.73900, 2.00, 1.0, 1.0000
3.74100, 2.00, 2.0, 1.4142
3.74300, 2.00, 0.0, 0.0000
3.74500, 2.00, 2.0, 1.4142
3.74700, 2.00, 0.0, 0.0000
3.74900, 2.00, 0.0, 0.0000
3.75100, 2.00, 1.0, 1.0000
3.75300, 2.00, 1.0, 1.0000
3.75500, 2.00, 0.0, 0.0000
3.75700, 2.00, 0.0, 0.0000
3.75900, 2.00, 0.0, 0.0000
3.76100, 2.00, 1.0, 1.0000
3.76300, 2.00, 0.0, 0.0000
3.76500, 2.00, 2.0, 1.4142
3.76700, 2.00, 1.0, 1.0000
3.76900, 2.00, 0.0, 0.0000
3.77100, 2.00, 0.0, 0.0000
3.77300, 2.00, 0.0, 0.0000
3.77500, 2.00, 2.0, 1.4142
3.77700, 2.00, 2.0, 1.4142
3.77900, 2.00, 0.0, 0.0000
3.78100, 2.00, 0.0, 0.0000
3.78300, 2.00, 0.0, 0.0000
3.78500, 2.00, 2.0, 1.4142
3.78700, 2.00, 0.0, 0.0000
3.78900, 2.00, 0.0, 0.0000
3.79100, 2.00, 0.0, 0.0000
3.79300, 2.00, 0.0, 0.0000
3.79500, 2.00, 0.0, 0.0000
3.79700, 2.00, 0.0, 0.0000
3.79900, 2.00, 0.0, 0.0000
3.80100, 2.00, 2.0, 1.4142
3.80300, 2.00, 1.0, 1.0000
3.80500, 2.00, 3.0, 1.7321
3.80700, 2.00, 0.0, 0.0000
3.80900, 2.00, 2.0, 1.4142
3.81100, 2.00, 3.0, 1.7321
3.81300, 2.00, 0.0, 0.0000
3.81500, 2.00, 0.0, 0.0000
3.81700, 2.00, 1.0, 1.0000
3.81900, 2.00, 0.0, 0.0000
3.82100, 2.00, 0.0, 0.0000
3.82300, 2.00, 1.0, 1.0000
3.82500, 2.00, 0.0, 0.0000
3.82700, 2.00, 1.0, 1.0000
3.82900, 2.00, 4.0, 2.0000
3.83100, 2.00, 1.0, 1.0000
3.83300, 2.00, 2.0, 1.4142
3.83500, 2.00, 0.0, 0.0000
3.83700, 2.00, 0.0, 0.0000
3.83900, 2.00, 1.0, 1.0000
3.84100, 2.00, 1.0, 1.0000
3.84300, 2.00, 0.0, 0.0000
3.84500, 2.00, 0.0, 0.0000
3.84700, 2.00, 0.0, 0.0000
3.84900, 2.00, 0.0, 0.0000
3.85100, 2.00, 2.0, 1.4142
3.85300, 2.00, 1.0, 1.0000
3.85500, 2.00, 0.0, 0.0000
3.85700, 2.00, 1.0, 1.0000
3.85900, 2.00, 2.0, 1.4142
3.86100, 2.00, 0.0, 0.0000
3.86300, 2.00, 2.0, 1.4142
3.86500, 2.00, 2.0, 1.4142
3.86700, 2.00, 0.0, 0.0000
3.86900, 2.00, 2.0, 1.4142
3.87100, 2.00, 0.0, 0.0000
3.87300, 2.00, 0.0, 0.0000
3.87500, 2.00, 0.0, 0.0000
3.87700, 2.00, 0.0, 0.0000
3.87900, 2.00, 0.0, 0.0000
3.88100, 2.00, 1.0, 1.0000
3.88300, 2.00, 1.0, 1.0000
3.88500, 2.00, 3.0, 1.7321
3.88700, 2.00, 3.0, 1.7321
3.88900, 2.00, 3.0, 1.7321
3.89100, 2.00, 1.0, 1.0000
3.89300, 2.00, 1.0, 1.0000
3.89500, 2.00, 0.0, 0.0000
3.89700, 2.00, 1.0, 1.0000
3.89900, 2.00, 2.0, 1.4142
3.90100, 2.00, 1.0, 1.0000
3.90300, 2.00, 1.0, 1.0000
3.90500, 2.00, 2.0, 1.4142
3.90700, 2.00, 0.0, 0.0000
3.90900, 2.00, 0.0, 0.0000
3.91100, 2.00, 1.0, 1.0000
3.91300, 2.00, 2.0, 1.4142
3.91500, 2.00, 1.0, 1.0000
3.91700, 2.00, 0.0, 0.0000
3.91900, 2.00, 0.0, 0.0000
3.92100, 2.00, 1.0, 1.0000
3.92300, 2.00, 1.0, 1.0000
3.92500, 2.00, 0.0, 0.0000
3.92700, 2.00, 2.0, 1.4142
3.92900, 2.00, 3.0, 1.7321
3.93100, 2.00, 1.0, 1.0000
3.93300, 2.00, 1.0, 1.0000
3.93500, 2.00, 2.0, 1.4142
3.93700, 2.00, 2.0, 1.4142
3.93900, 2.00, 1.0, 1.0000
3.94100, 2.00, 1.0, 1.0000
3.94300, 2.00, 2.0, 1.4142
3.94500, 2.00, 0.0, 0.0000
3.94700, 2.00, 3.0, 1.7321
3.94900, 2.00, 4.0, 2.0000
3.95100, 2.00, 1.0, 1.0000
3.95300, 2.00, 1.0, 1.0000
3.95500, 2.00, 0.0, 0.0000
3.95700, 2.00, 2.0, 1.4142
3.95900, 2.00, 2.0, 1.4142
3.96100, 2.00, 1.0, 1.0000
3.96300, 2.00, 0.0, 0.0000
3.96500, 2.00, 1.0, 1.0000
3.96700, 2.00, 2.0, 1.4142
3.96900, 2.00, 6.0, 2.4495
3.97100, 2.00, 2.0, 1.4142
3.97300, 2.00, 2.0, 1.4142
3.97500, 2.00, 3.0, 1.7321
3.97700, 2.00, 1.0, 1.0000
3.97900, 2.00, 6.0, 2.4495
3.98100, 2.00, 0.0, 0.0000
3.98300, 2.00, 4.0, 2.0000
3.98500, 2.00, 0.0, 0.0000
3.98700, 2.00, 6.0, 2.4495
3.98900, 2.00, 5.0, 2.2361
3.99100, 2.00, 3.0, 1.7321
3.99300, 2.00, 2.0, 1.4142
3.99500, 2.00, 2.0, 1.4142
3.99700, 2.00, 2.0, 1.4142
3.99900, 2.00, 1.0, 1.0000
4.00100, 2.00, 1.0, 1.0000
4.00300, 2.00, 5.0, 2.2361
4.00500, 2.00, 2.0, 1.4142
4.00700, 2.00, 0.0, 0.0000
4.00900, 2.00, 4.0, 2.0000
4.01100, 2.00, 0.0, 0.0000
4.01300, 2.00, 1.0, 1.0000
4.01500, 2.00, 1.0, 1.0000
4.01700, 2.00, 2.0, 1.4142
4.01900, 2.00, 3.0, 1.7321
4.02100, 2.00, 2.0, 1.4142
4.02300, 2.00, 3.0, 1.7321
4.02500, 2.00, 4.0, 2.0000
4.02700, 2.00, 1.0, 1.0000
4.02900, 2.00, 2.0, 1.4142
4.03100, 2.00, 4.0, 2.0000
4.03300, 2.00, 4.0, 2.0000
4.03500, 2.00, 3.0, 1.7321
4.03700, 2.00, 2.0, 1.4142
4.03900, 2.00, 3.0, 1.7321
4.04100, 2.00, 6.0, 2.4495
4.04300, 2.00, 1.0, 1.0000
4.04500, 2.00, 5.0, 2.2361
4.04700, 2.00, 4.0, 2.0000
4.04900, 2.00, 2.0, 1.4142
4.05100, 2.00, 5.0, 2.2361
4.05300, 2.00, 4.0, 2.0000
4.05500, 2.00, 3.0, 1.7321
4.05700, 2.00, 5.0, 2.2361
4.05900, 2.00, 1.0, 1.0000
4.06100, 2.00, 5.0, 2.2361
4.06300, 2.00, 2.0, 1.4142
4.06500, 2.00, 6.0, 2.4495
4.06700, 2.00, 4.0, 2.0000
4.06900, 2.00, 2.0, 1.4142
4.07100, 2.00, 3.0, 1.7321
4.07300, 2.00, 6.0, 2.4495
4.07500, 2.00, 5.0, 2.2361
4.07700, 2.00, 8.0, 2.8284
4.07900, 2.00, 5.0, 2.2361
4.08100, 2.00, 2.0, 1.4142
4.08300, 2.00, 4.0, 2.0000
4.08500, 2.00, 9.0, 3.0000
4.08700, 2.00, 2.0, 1.4142
4.08900, 2.00, 4.0, 2.0000
4.09100, 2.00, 3.0, 1.7321
4.09300, 2.00, 2.0, 1.4142
4.09500, 2.00, 6.0, 2.4495
4.09700, 2.00, 4.0, 2.0000
4.09900, 2.00, 3.0, 1.7321
4.10100, 2.00, 5.0, 2.2361
4.10300, 2.00, 8.0, 2.8284
4.10500, 2.00, 5.0, 2.2361
4.10700, 2.00, 7.0, 2.6458
4.10900, 2.00, 4.0, 2.0000
4.11100, 2.00, 15.0, 3.8730
4.11300, 2.00, 2.0, 1.4142
4.11500, 2.00, 6.0, 2.4495
4.11700, 2.00, 7.0, 2.6458
4.11900, 2.00, 3.0, 1.7321
4.12100, 2.00, 10.0, 3.1623
4.12300, 2.00, 7.0, 2.6458
4.12500, 2.00, 7.0, 2.6458
4.12700, 2.00, 14.0, 3.7417
4.12900, 2.00, 7.0, 2.6458
4.13100, 2.00, 7.0, 2.6458
4.13300, 2.00, 6.0, 2.4495
4.13500, 2.00, 6.0, 2.4495
4.13700, 2.00, 8.0, 2.8284
4.13900, 2.00, 10.0, 3.1623
4.14100, 2.00, 8.0, 2.8284
4.14300, 2.00, 8.0, 2.8284
4.14500, 2.00, 3.0, 1.7321
4.14700, 2.00, 9.0, 3.0000
4.14900, 2.00, 4.0, 2.0000
4.15100, 2.00, 12.0, 3.4641
4.15300, 2.00, 19.0, 4.3589
4.15500, 2.00, 11.0, 3.3166
4.15700, 2.00, 11.0, 3.3166
4.15900, 2.00, 15.0, 3.8730
4.16100, 2.00, 18.0, 4.2426
4.16300, 2.00, 11.0, 3.3166
4.16500, 2.00, 9.0, 3.0000
4.16700, 2.00, 12.0, 3.4641
4.16900, 2.00, 6.0, 2.4495
4.17100, 2.00, 10.0, 3.1623
4.17300, 2.00, 9.0, 3.0000
4.17500, 2.00, 10.0, 3.1623
4.17700, 2.00, 14.0, 3.7417
4.17900, 2.00, 13.0, 3.6056
4.18100, 2.00, 12.0, 3.4641
4.18300, 2.00, 15.0, 3.8730
4.18500, 2.00, 6.0, 2.4495
4.18700, 2.00, 13.0, 3.6056
4.18900, 2.00, 14.0, 3.7417
4.19100, 2.00, 6.0, 2.4495
4.19300, 2.00, 13.0, 3.6056
4.19500, 2.00, 6.0, 2.4495
4.19700, 2.00, 12.0, 3.4641
4.19900, 2.00, 15.0, 3.8730
4.20100, 2.00, 9.0, 3.0000
4.20300, 2.00, 6.0, 2.4495
4.20500, 2.00, 11.0, 3.3166
4.20700, 2.00, 4.0, 2.0000
4.20900, 2.00, 12.0, 3.4641
4.21100, 2.00, 9.0, 3.0000
4.21300, 2.00, 10.0, 3.1623
4.21500, 2.00, 16.0, 4.0000
4.21700, 2.00, 14.0, 3.7417
4.21900, 2.00, 11.0, 3.3166
4.22100, 2.00, 10.0, 3.1623
4.22300, 2.00, 13.0, 3.6056
4.22500, 2.00, 17.0, 4.1231
4.22700, 2.00, 9.0, 3.0000
4.22900, 2.00, 5.0, 2.2361
4.23100, 2.00, 10.0, 3.1623
4.23300, 2.00, 11.0, 3.3166
4.23500, 2.00, 11.0, 3.3166
4.23700, 2.00, 8.0, 2.8284
4.23900, 2.00, 7.0, 2.6458
4.24100, 2.00, 10.0, 3.1623
4.24300, 2.00, 10.0, 3.1623
4.24500, 2.00, 3.0, 1.7321
4.24700, 2.00, 10.0, 3.1623
4.24900, 2.00, 5.0, 2.2361
4.25100, 2.00, 8.0, 2.8284
4.25300, 2.00, 5.0, 2.2361
4.25500, 2.00, 13.0, 3.6056
4.25700, 2.00, 8.0, 2.8284
4.25900, 2.00, 4.0, 2.0000
4.26100, 2.00, 9.0, 3.0000
4.26300, 2.00, 20.0, 4.4721
4.26500, 2.00, 21.0, 4.5826
4.26700, 2.00, 16.0, 4.0000
4.26900, 2.00, 9.0, 3.0000
4.27100, 2.00, 5.0, 2.2361
4.27300, 2.00, 15.0, 3.8730
4.27500, 2.00, 18.0, 4.2426
4.27700, 2.00, 15.0, 3.8730
4.27900, 2.00, 22.0, 4.6904
4.28100, 2.00, 21.0, 4.5826
4.28300, 2.00, 9.0, 3.0000
4.28500, 2.00, 14.0, 3.7417
4.28700, 2.00, 17.0, 4.1231
4.28900, 2.00, 22.0, 4.6904
4.29100, 2.00, 28.0, 5.2915
4.29300, 2.00, 29.0, 5.3852
4.29500, 2.00, 25.0, 5.0000
4.29700, 2.00, 23.0, 4.7958
4.29900, 2.00, 14.0, 3.7417
4.30100, 2.00, 19.0, 4.3589
4.30300, 2.00, 34.0, 5.8310
4.30500, 2.00, 29.0, 5.3852
4.30700, 2.00, 28.0, 5.2915
4.30900, 2.00, 34.0, 5.8310
4.31100, 2.00, 29.0, 5.3852
4.31300, 2.00, 22.0, 4.6904
4.31500, 2.00, 16.0, 4.0000
4.31700, 2.00, 20.0, 4.4721
4.31900, 2.00, 18.0, 4.2426
4.32100, 2.00, 18.0, 4.2426
4.32300, 2.00, 27.0, 5.1962
4.32500, 2.00, 36.0, 6.0000
4.32700, 2.00, 29.0, 5.3852
4.32900, 2.00, 34.0, 5.8310
4.33100, 2.00, 38.0, 6.1644
4.33300, 2.00, 27.0, 5.1962
4.33500, 2.00, 32.0, 5.6569
4.33700, 2.00, 20.0, 4.4721
4.33900, 2.00, 14.0, 3.7417
4.34100, 2.00, 11.0, 3.3166
4.34300, 2.00, 14.0, 3.7417
4.34500, 2.00, 22.0, 4.6904
4.34700, 2.00, 23.0, 4.7958
4.34900, 2.00, 27.0, 5.1962
4.35100, 2.00, 31.0, 5.5678
4.35300, 2.00, 50.0, 7.0711
4.35500, 2.00, 50.0, 7.0711
4.35700, 2.00, 44.0, 6.6332
4.35900, 2.00, 49.0, 7.0000
4.36100, 2.00, 46.0, 6.7823
4.36300, 2.00, 44.0, 6.6332
4.36500, 2.00, 59.0, 7.6811
4.36700, 2.00, 45.0, 6.7082
4.36900, 2.00, 33.0, 5.7446
4.37100, 2.00, 38.0, 6.1644
4.37300, 2.00, 23.0, 4.7958
4.37500, 2.00, 25.0, 5.0000
4.37700, 2.00, 18.0, 4.2426
4.37900, 2.00, 11.0, 3.3166
4.38100, 2.00, 12.0, 3.4641
4.38300, 2.00, 10.0, 3.1623
4.38500, 2.00, 7.0, 2.6458
4.38700, 2.00, 7.0, 2.6458
4.38900, 2.00, 3.0, 1.7321
4.39100, 2.00, 4.0, 2.0000
4.39300, 2.00, 4.0, 2.0000
4.39500, 2.00, 1.0, 1.0000
4.39700, 2.00, 1.0, 1.0000
4.39900, 2.00, 1.0, 1.0000
4.40100, 2.00, 0.0, 0.0000
4.40300, 2.00, 1.0, 1.0000
4.40500, 2.00, 0.0, 0.0000
4.40700, 2.00, 0.0, 0.0000
4.40900, 2.00, 0.0, 0.0000
4.41100, 2.00, 1.0, 1.0000
4.41300, 2.00, 1.0, 1.0000
4.41500, 2.00, 0.0, 0.0000
4.41700, 2.00, 1.0, 1.0000
4.41900, 2.00, 0.0, 0.0000
4.42100, 2.00, 1.0, 1.0000
4.42300, 2.00, 0.0, 0.0000
4.42500, 2.00, 1.0, 1.0000
4.42700, 2.00, 1.0, 1.0000
4.42900, 2.00, 1.0, 1.0000
4.43100, 2.00, 0.0, 0.0000
4.43300, 2.00, 0.0, 0.0000
4.43500, 2.00, 0.0, 0.0000
4.43700, 2.00, 0.0, 0.0000
4.43900, 2.00, 0.0, 0.0000
4.44100, 2.00, 2.0, 1.4142
4.44300, 2.00, 0.0, 0.0000
4.44500, 2.00, 1.0, 1.0000
4.44700, 2.00, 1.0, 1.0000
4.44900, 2.00, 1.0, 1.0000
4.45100, 2.00, 0.0, 0.0000
4.45300, 2.00, 0.0, 0.0000
4.45500, 2.00, 0.0, 0.0000
4.45700, 2.00, 1.0, 1.0000
4.45900, 2.00, 0.0, 0.0000
4.46100, 2.00, 1.0, 1.0000
4.46300, 2.00, 0.0, 0.0000
4.46500, 2.00, 0.0, 0.0000
4.46700, 2.00, 0.0, 0.0000
4.46900, 2.00, 1.0, 1.0000
4.47100, 2.00, 0.0, 0.0000
4.47300, 2.00, 0.0, 0.0000
4.47500, 2.00, 1.0, 1.0000
4.47700, 2.00, 1.0, 1.0000
4.47900, 2.00, 0.0, 0.0000
4.48100, 2.00, 0.0, 0.0000
4.48300, 2.00, 1.0, 1.0000
4.48500, 2.00, 0.0, 0.0000
4.48700, 2.00, 0.0, 0.0000
4.48900, 2.00, 0.0, 0.0000
4.49100, 2.00, 0.0, 0.0000
4.49300, 2.00, 1.0, 1.0000
4.49500, 2.00, 0.0, 0.0000
4.49700, 2.00, 0.0, 0.0000
4.49900, 2.00, 2.0, 1.4142
4.50100, 2.00, 0.0, 0.0000
4.50300, 2.00, 0.0, 0.0000
4.50500, 2.00, 0.0, 0.0000
4.50700, 2.00, 0.0, 0.0000
4.50900, 2.00, 0.0, 0.0000
4.51100, 2.00, 0.0, 0.0000
4.51300, 2.00, 0.0, 0.0000
4.51500, 2.00, 0.0, 0.0000
4.51700, 2.00, 3.0, 1.7321
4.51900, 2.00, 0.0, 0.0000
4.52100, 2.00, 1.0, 1.0000
4.52300, 2.00, 0.0, 0.0000
4.52500, 2.00, 1.0, 1.0000
4.52700, 2.00, 0.0, 0.0000
4.52900, 2.00, 1.0, 1.0000
4.53100, 2.00, 0.0, 0.0000
4.53300, 2.00, 0.0, 0.0000
4.53500, 2.00, 0.0, 0.0000
4.53700, 2.00, 2.0, 1.4142
4.53900, 2.00, 0.0, 0.0000
4.54100, 2.00, 1.0, 1.0000
4.54300, 2.00, 0.0, 0.0000
4.54500, 2.00, 0.0, 0.0000
4.54700, 2.00, 1.0, 1.0000
4.54900, 2.00, 0.0, 0.0000
4.55100, 2.00, 0.0, 0.0000
4.55300, 2.00, 0.0, 0.0000
4.55500, 2.00, 0.0, 0.0000
4.55700, 2.00, 0.0, 0.0000
4.55900, 2.00, 0.0, 0.0000
4.56100, 2.00, 0.0, 0.0000
4.56300, 2.00, 0.0, 0.0000
4.56500, 2.00, 1.0, 1.0000
4.56700, 2.00, 1.0, 1.0000
4.56900, 2.00, 0.0, 0.0000
4.57100, 2.00, 0.0, 0.0000
4.57300, 2.00, 0.0, 0.0000
4.57500, 2.00, 0.0, 0.0000
4.57700, 2.00, 1.0, 1.0000
4.57900, 2.00, 0.0, 0.0000
4.58100, 2.00, 0.0, 0.0000
4.58300, 2.00, 0.0, 0.0000
4.58500, 2.00, 0.0, 0.0000
4.58700, 2.00, 2.0, 1.4142
4.58900, 2.00, 0.0, 0.0000
4.59100, 2.00, 0.0, 0.0000
4.59300, 2.00, 1.0, 1.0000
4.59500, 2.00, 0.0, 0.0000
4.59700, 2.00, 1.0, 1.0000
4.59900, 2.00, 0.0, 0.0000
4.60100, 2.00, 0.0, 0.0000
4.60300, 2.00, 1.0, 1.0000
4.60500, 2.00, 2.0, 1.4142
4.60700, 2.00, 2.0, 1.4142
4.60900, 2.00, 0.0, 0.0000
4.61100, 2.00, 0.0, 0.0000
4.61300, 2.00, 1.0, 1.0000
4.61500, 2.00, 2.0, 1.4142
4.61700, 2.00, 0.0, 0.0000
4.61900, 2.00, 0.0, 0.0000
4.62100, 2.00, 0.0, 0.0000
4.62300, 2.00, 0.0, 0.0000
4.62500, 2.00, 0.0, 0.0000
4.62700, 2.00, 2.0, 1.4142
4.62900, 2.00, 1.0, 1.0000
4.63100, 2.00, 1.0, 1.0000
4.63300, 2.00, 0.0, 0.0000
4.63500, 2.00, 0.0, 0.0000
4.63700, 2.00, 1.0, 1.0000
4.63900, 2.00, 0.0, 0.0000
4.64100, 2.00, 0.0, 0.0000
4.64300, 2.00, 0.0, 0.0000
4.64500, 2.00, 1.0, 1.0000
4.64700, 2.00, 1.0, 1.0000
4.64900, 2.00, 4.0, 2.0000
4.65100, 2.00, 0.0, 0.0000
4.65300, 2.00, 1.0, 1.0000
4.65500, 2.00, 0.0, 0.0000
4.65700, 2.00, 0.0, 0.0000
4.65900, 2.00, 0.0, 0.0000
4.66100, 2.00, 1.0, 1.0000
4.66300, 2.00, 1.0, 1.0000
4.66500, 2.00, 0.0, 0.0000
4.66700, 2.00, 0.0, 0.0000
4.66900, 2.00, 1.0, 1.0000
4.67100, 2.00, 1.0, 1.0000
4.67300, 2.00, 0.0, 0.0000
4.67500, 2.00, 0.0, 0.0000
4.67700, 2.00, 0.0, 0.0000
4.67900, 2.00, 0.0, 0.0000
4.68100, 2.00, 1.0, 1.0000
4.68300, 2.00, 0.0, 0.0000
4.68500, 2.00, 0.0, 0.0000
4.68700, 2.00, 0.0, 0.0000
4.68900, 2.00, 1.0, 1.0000
4.69100, 2.00, 4.0, 2.0000
4.69300, 2.00, 0.0, 0.0000
4.69500, 2.00, 0.0, 0.0000
4.69700, 2.00, 0.0, 0.0000
4.69900, 2.00, 0.0, 0.0000
4.70100, 2.00, 0.0, 0.0000
4.70300, 2.00, 0.0, 0.0000
4.70500, 2.00, 1.0, 1.0000
4.70700, 2.00, 0.0, 0.0000
4.70900, 2.00, 0.0, 0.0000
4.71100, 2.00, 1.0, 1.0000
4.71300, 2.00, 0.0, 0.0000
4.71500, 2.00, 0.0, 0.0000
4.71700, 2.00, 0.0, 0.0000
4.71900, 2.00, 1.0, 1.0000
4.72100, 2.00, 1.0, 1.0000
4.72300, 2.00, 0.0, 0.0000
4.72500, 2.00, 0.0, 0.0000
4.72700, 2.00, 1.0, 1.0000
4.72900, 2.00, 0.0, 0.0000
4.73100, 2.00, 0.0, 0.0000
4.73300, 2.00, 2.0, 1.4142
4.73500, 2.00, 0.0, 0.0000
4.73700, 2.00, 0.0, 0.0000
4.73900, 2.00, 0.0, 0.0000
4.74100, 2.00, 0.0, 0.0000
4.74300, 2.00, 0.0, 0.0000
4.74500, 2.00, 0.0, 0.0000
4.74700, 2.00, 0.0, 0.0000
4.74900, 2.00, 0.0, 0.0000
4.75100, 2.00, 0.0, 0.0000
4.75300, 2.00, 1.0, 1.0000
4.75500, 2.00, 1.0, 1.0000
4.75700, 2.00, 1.0, 1.0000
4.75900, 2.00, 0.0, 0.0000
4.76100, 2.00, 1.0, 1.0000
4.76300, 2.00, 0.0, 0.0000
4.76500, 2.00, 0.0, 0.0000
4.76700, 2.00, 2.0, 1.4142
4.76900, 2.00, 0.0, 0.0000
4.77100, 2.00, 0.0, 0.0000
4.77300, 2.00, 0.0, 0.0000
4.77500, 2.00, 0.0, 0.0000
4.77700, 2.00, 0.0, 0.0000
4.77900, 2.00, 0.0, 0.0000
4.78100, 2.00, 0.0, 0.0000
4.78300, 2.00, 0.0, 0.0000
4.78500, 2.00, 1.0, 1.0000
4.78700, 2.00, 0.0, 0.0000
4.78900, 2.00, 0.0, 0.0000
4.79100, 2.00, 1.0, 1.0000
4.79300, 2.00, 0.0, 0.0000
4.79500, 2.00, 0.0, 0.0000
4.79700, 2.00, 0.0, 0.0000
4.79900, 2.00, 3.0, 1.7321
4.80100, 2.00, 0.0, 0.0000
4.80300, 2.00, 0.0, 0.0000
4.80500, 2.00, 2.0, 1.4142
4.80700, 2.00, 1.0, 1.0000
4.80900, 2.00, 2.0, 1.4142
4.81100, 2.00, 1.0, 1.0000
4.81300, 2.00, 0.0, 0.0000
4.81500, 2.00, 0.0, 0.0000
4.81700, 2.00, 0.0, 0.0000
4.81900, 2.00, 1.0, 1.0000
4.82100, 2.00, 0.0, 0.0000
4.82300, 2.00, 0.0, 0.0000
4.82500, 2.00, 1.0, 1.0000
4.82700, 2.00, 0.0, 0.0000
4.82900, 2.00, 0.0, 0.0000
4.83100, 2.00, 0.0, 0.0000
4.83300, 2.00, 0.0, 0.0000
4.83500, 2.00, 1.0, 1.0000
4.83700, 2.00, 0.0, 0.0000
4.83900, 2.00, 0.0, 0.0000
4.84100, 2.00, 0.0, 0.0000
4.84300, 2.00, 1.0, 1.0000
4.84500, 2.00, 1.0, 1.0000
4.84700, 2.00, 2.0, 1.4142
4.84900, 2.00, 0.0, 0.0000
4.85100, 2.00, 0.0, 0.0000
4.85300, 2.00, 0.0, 0.0000
4.85500, 2.00, 0.0, 0.0000
4.85700, 2.00, 1.0, 1.0000
4.85900, 2.00, 0.0, 0.0000
4.86100, 2.00, 0.0, 0.0000
4.86300, 2.00, 0.0, 0.0000
4.86500, 2.00, 1.0, 1.0000
4.86700, 2.00, 1.0, 1.0000
4.86900, 2.00, 0.0, 0.0000
4.87100, 2.00, 1.0, 1.0000
4.87300, 2.00, 1.0, 1.0000
4.87500, 2.00, 2.0, 1.4142
4.87700, 2.00, 0.0, 0.0000
4.87900, 2.00, 0.0, 0.0000
4.88100, 2.00, 0.0, 0.0000
4.88300, 2.00, 0.0, 0.0000
4.88500, 2.00, 0.0, 0.0000
4.88700, 2.00, 0.0, 0.0000
4.88900, 2.00, 0.0, 0.0000
4.89100, 2.00, 1.0, 1.0000
4.89300, 2.00, 0.0, 0.0000
4.89500, 2.00, 1.0, 1.0000
4.89700, 2.00, 0.0, 0.0000
4.89900, 2.00, 0.0, 0.0000
4.90100, 2.00, 0.0, 0.0000
4.90300, 2.00, 1.0, 1.0000
4.90500, 2.00, 1.0, 1.0000
4.90700, 2.00, 1.0, 1.0000
4.90900, 2.00, 0.0, 0.0000
4.91100, 2.00, 3.0, 1.7321
4.91300, 2.00, 0.0, 0.0000
4.91500, 2.00, 0.0, 0.0000
4.91700, 2.00, 0.0, 0.0000
4.91900, 2.00, 0.0, 0.0000
4.92100, 2.00, 0.0, 0.0000
4.92300, 2.00, 0.0, 0.0000
4.92500, 2.00, 0.0, 0.0000
4.92700, 2.00, 0.0, 0.0000
4.92900, 2.00, 0.0, 0.0000
4.93100, 2.00, 1.0, 1.0000
4.93300, 2.00, 1.0, 1.0000
4.93500, 2.00, 1.0, 1.0000
4.93700, 2.00, 2.0, 1.4142
4.93900, 2.00, 0.0, 0.0000
4.94100, 2.00, 0.0, 0.0000
4.94300, 2.00, 0.0, 0.0000
4.94500, 2.00, 0.0, 0.0000
4.94700, 2.00, 0.0, 0.0000
4.94900, 2.00, 0.0, 0.0000
4.95100, 2.00, 0.0, 0.0000
4.95300, 2.00, 1.0, 1.0000
4.95500, 2.00, 1.0, 1.0000
4.95700, 2.00, 0.0, 0.0000
4.95900, 2.00, 0.0, 0.0000
4.96100, 2.00, 0.0, 0.0000
4.96300, 2.00, 1.0, 1.0000
4.96500, 2.00, 0.0, 0.0000
4.96700, 2.00, 1.0, 1.0000
4.96900, 2.00, 0.0, 0.0000
4.97100, 2.00, 0.0, 0.0000
4.97300, 2.00, 2.0, 1.4142
4.97500, 2.00, 2.0, 1.4142
4.97700, 2.00, 0.0, 0.0000
4.97900, 2.00, 0.0, 0.0000
4.98100, 2.00, 0.0, 0.0000
4.98300, 2.00, 0.0, 0.0000
4.98500, 2.00, 0.0, 0.0000
4.98700, 2.00, 1.0, 1.0000
4.98900, 2.00, 0.0, 0.0000
4.99100, 2.00, 1.0, 1.0000
4.99300, 2.00, 0.0, 0.0000
4.99500, 2.00, 0.0, 0.0000
4.99700, 2.00, 0.0, 0.0000
4.99900, 2.00, 0.0, 0.0000
5.00100, 2.00, 0.0, 0.0000
5.00300, 2.00, 0.0, 0.0000
5.00500, 2.00, 1.0, 1.0000
5.00700, 2.00, 0.0, 0.0000
5.00900, 2.00, 0.0, 0.0000
5.01100, 2.00, 2.0, 1.4142
5.01300, 2.00, 0.0, 0.0000
5.01500, 2.00, 0.0, 0.0000
5.01700, 2.00, 0.0, 0.0000
5.01900, 2.00, 0.0, 0.0000
5.02100, 2.00, 0.0, 0.0000
5.02300, 2.00, 0.0, 0.0000
5.02500, 2.00, 1.0, 1.0000
5.02700, 2.00, 1.0, 1.0000
5.02900, 2.00, 0.0, 0.0000
5.03100, 2.00, 0.0, 0.0000
5.03300, 2.00, 0.0, 0.0000
5.03500, 2.00, 0.0, 0.0000
5.03700, 2.00, 1.0, 1.0000
5.03900, 2.00, 0.0, 0.0000
5.04100, 2.00, 0.0, 0.0000
5.04300, 2.00, 0.0, 0.0000
5.04500, 2.00, 0.0, 0.0000
5.04700, 2.00, 1.0, 1.0000
5.04900, 2.00, 0.0, 0.0000
5.05100, 2.00, 0.0, 0.0000
5.05300, 2.00, 0.0, 0.0000
5.05500, 2.00, 0.0, 0.0000
5.05700, 2.00, 0.0, 0.0000
5.05900, 2.00, 0.0, 0.0000
5.06100, 2.00, 0.0, 0.0000
5.06300, 2.00, 0.0, 0.0000
5.06500, 2.00, 0.0, 0.0000
5.06700, 2.00, 1.0, 1.0000
5.06900, 2.00, 0.0, 0.0000
5.07100, 2.00, 0.0, 0.0000
5.07300, 2.00, 0.0, 0.0000
5.07500, 2.00, 1.0, 1.0000
5.07700, 2.00, 0.0, 0.0000
5.07900, 2.00, 0.0, 0.0000
5.08100, 2.00, 0.0, 0.0000
5.08300, 2.00, 0.0, 0.0000
5.08500, 2.00, 0.0, 0.0000
5.08700, 2.00, 0.0, 0.0000
5.08900, 2.00, 0.0, 0.0000
5.09100, 2.00, 0.0, 0.0000
5.09300, 2.00, 2.0, 1.4142
5.09500, 2.00, 0.0, 0.0000
5.09700, 2.00, 1.0, 1.0000
5.09900, 2.00, 2.0, 1.4142
5.10100, 2.00, 0.0, 0.0000
5.10300, 2.00, 0.0, 0.0000
5.10500, 2.00, 1.0, 1.0000
5.10700, 2.00, 0.0, 0.0000
5.10900, 2.00, 0.0, 0.0000
5.11100, 2.00, 0.0, 0.0000
5.11300, 2.00, 0.0, 0.0000
5.11500, 2.00, 1.0, 1.0000
5.11700, 2.00, 0.0, 0.0000
5.11900, 2.00, 0.0, 0.0000
5.12100, 2.00, 0.0, 0.0000
5.12300, 2.00, 0.0, 0.0000
5.12500, 2.00, 1.0, 1.0000
5.12700, 2.00, 0.0, 0.0000
5.12900, 2.00, 0.0, 0.0000
5.13100, 2.00, 0.0, 0.0000
5.13300, 2.00, 0.0, 0.0000
5.13500, 2.00, 0.0, 0.0000
5.13700, 2.00, 0.0, 0.0000
5.13900, 2.00, 0.0, 0.0000
5.14100, 2.00, 0.0, 0.0000
5.14300, 2.00, 0.0, 0.0000
5.14500, 2.00, 0.0, 0.0000
5.14700, 2.00, 0.0, 0.0000
5.14900, 2.00, 1.0, 1.0000
5.15100, 2.00, 1.0, 1.0000
5.15300, 2.00, 1.0, 1.0000
5.15500, 2.00, 0.0, 0.0000
5.15700, 2.00, 0.0, 0.0000
5.15900, 2.00, 1.0, 1.0000
5.16100, 2.00, 0.0, 0.0000
5.16300, 2.00, 0.0, 0.0000
5.16500, 2.00, 0.0, 0.0000
5.16700, 2.00, 1.0, 1.0000
5.16900, 2.00, 0.0, 0.0000
5.17100, 2.00, 0.0, 0.0000
5.17300, 2.00, 2.0, 1.4142
5.17500, 2.00, 2.0, 1.4142
5.17700, 2.00, 0.0, 0.0000
5.17900, 2.00, 0.0, 0.0000
5.18100, 2.00, 0.0, 0.0000
5.18300, 2.00, 1.0, 1.0000
5.18500, 2.00, 0.0, 0.0000
5.18700, 2.00, 0.0, 0.0000
5.18900, 2.00, 1.0, 1.0000
5.19100, 2.00, 0.0, 0.0000
5.19300, 2.00, 0.0, 0.0000
5.19500, 2.00, 1.0, 1.0000
5.19700, 2.00, 1.0, 1.0000
5.19900, 2.00, 0.0, 0.0000
5.20100, 2.00, 0.0, 0.0000
5.20300, 2.00, 0.0, 0.0000
5.20500, 2.00, 2.0, 1.4142
5.20700, 2.00, 2.0, 1.4142
5.20900, 2.00, 0.0, 0.0000
5.21100, 2.00, 0.0, 0.0000
5.21300, 2.00, 0.0, 0.0000
5.21500, 2.00, 0.0, 0.0000
5.21700, 2.00, 0.0, 0.0000
5.21900, 2.00, 0.0, 0.0000
5.22100, 2.00, 0.0, 0.0000
5.22300, 2.00, 0.0, 0.0000
5.22500, 2.00, 1.0, 1.0000
5.22700, 2.00, 0.0, 0.0000
5.22900, 2.00, 0.0, 0.0000
5.23100, 2.00, 1.0, 1.0000
5.23300, 2.00, 0.0, 0.0000
5.23500, 2.00, 0.0, 0.0000
5.23700, 2.00, 1.0, 1.0000
5.23900, 2.00, 0.0, 0.0000
5.24100, 2.00, 0.0, 0.0000
5.24300, 2.00, 0.0, 0.0000
5.24500, 2.00, 0.0, 0.0000
5.24700, 2.00, 0.0, 0.0000
5.24900, 2.00, 0.0, 0.0000
5.25100, 2.00, 0.0, 0.0000
5.25300, 2.00, 0.0, 0.0000
5.25500, 2.00, 0.0, 0.0000
5.25700, 2.00, 0.0, 0.0000
5.25900, 2.00, 2.0, 1.4142
5.26100, 2.00, 1.0, 1.0000
5.26300, 2.00, 0.0, 0.0000
5.26500, 2.00, 0.0, 0.0000
5.26700, 2.00, 1.0, 1.0000
5.26900, 2.00, 0.0, 0.0000
5.27100, 2.00, 1.0, 1.0000
5.27300, 2.00, 0.0, 0.0000
5.27500, 2.00, 1.0, 1.0000
5.27700, 2.00, 2.0, 1.4142
5.27900, 2.00, 1.0, 1.0000
5.28100, 2.00, 0.0, 0.0000
5.28300, 2.00, 0.0, 0.0000
5.28500, 2.00, 0.0, 0.0000
5.28700, 2.00, 0.0, 0.0000
5.28900, 2.00, 0.0, 0.0000
5.29100, 2.00, 0.0, 0.0000
5.29300, 2.00, 0.0, 0.0000
5.29500, 2.00, 0.0, 0.0000
5.29700, 2.00, 0.0, 0.0000
5.29900, 2.00, 2.0, 1.4142
5.30100, 2.00, 0.0, 0.0000
5.30300, 2.00, 0.0, 0.0000
5.30500, 2.00, 1.0, 1.0000
5.30700, 2.00, 0.0, 0.0000
5.30900, 2.00, 0.0, 0.0000
5.31100, 2.00, 0.0, 0.0000
5.31300, 2.00, 0.0, 0.0000
5.31500, 2.00, 0.0, 0.0000
5.31700, 2.00, 0.0, 0.0000
5.31900, 2.00, 1.0, 1.0000
5.32100, 2.00, 0.0, 0.0000
5.32300, 2.00, 0.0, 0.0000
5.32500, 2.00, 0.0, 0.0000
5.32700, 2.00, 0.0, 0.0000
5.32900, 2.00, 1.0, 1.0000
5.33100, 2.00, 0.0, 0.0000
5.33300, 2.00, 0.0, 0.0000
5.33500, 2.00, 1.0, 1.0000
5.33700, 2.00, 0.0, 0.0000
5.33900, 2.00, 0.0, 0.0000
5.34100, 2.00, 0.0, 0.0000
5.34300, 2.00, 1.0, 1.0000
5.34500, 2.00, 2.0, 1.4142
5.34700, 2.00, 0.0, 0.0000
5.34900, 2.00, 0.0, 0.0000
5.35100, 2.00, 0.0, 0.0000
5.35300, 2.00, 1.0, 1.0000
5.35500, 2.00, 0.0, 0.0000
5.35700, 2.00, 0.0, 0.0000
5.35900, 2.00, 0.0, 0.0000
5.36100, 2.00, 0.0, 0.0000
5.36300, 2.00, 2.0, 1.4142
5.36500, 2.00, 0.0, 0.0000
5.36700, 2.00, 0.0, 0.0000
5.36900, 2.00, 0.0, 0.0000
5.37100, 2.00, 0.0, 0.0000
5.37300, 2.00, 0.0, 0.0000
5.37500, 2.00, 0.0, 0.0000
5.37700, 2.00, 0.0, 0.0000
5.37900, 2.00, 1.0, 1.0000
5.38100, 2.00, 1.0, 1.0000
5.38300, 2.00, 0.0, 0.0000
5.38500, 2.00, 0.0, 0.0000
5.38700, 2.00, 1.0, 1.0000
5.38900, 2.00, 0.0, 0.0000
5.39100, 2.00, 0.0, 0.0000
5.39300, 2.00, 0.0, 0.0000
5.39500, 2.00, 0.0, 0.0000
5.39700, 2.00, 0.0, 0.0000
5.39900, 2.00, 0.0, 0.0000
5.40100, 2.00, 0.0, 0.0000
5.40300, 2.00, 1.0, 1.0000
5.40500, 2.00, 0.0, 0.0000
5.40700, 2.00, 1.0, 1.0000
5.40900, 2.00, 0.0, 0.0000
5.41100, 2.00, 0.0, 0.0000
5.41300, 2.00, 1.0, 1.0000
5.41500, 2.00, 0.0, 0.0000
5.41700, 2.00, 1.0, 1.0000
5.41900, 2.00, 1.0, 1.0000
5.42100, 2.00, 0.0, 0.0000
5.42300, 2.00, 0.0, 0.0000
5.42500, 2.00, 0.0, 0.0000
5.42700, 2.00, 0.0, 0.0000
5.42900, 2.00, 0.0, 0.0000
5.43100, 2.00, 2.0, 1.4142
5.43300, 2.00, 0.0, 0.0000
5.43500, 2.00, 1.0, 1.0000
5.43700, 2.00, 2.0, 1.4142
5.43900, 2.00, 1.0, 1.0000
5.44100, 2.00, 1.0, 1.0000
5.44300, 2.00, 0.0, 0.0000
5.44500, 2.00, 1.0, 1.0000
5.44700, 2.00, 0.0, 0.0000
5.44900, 2.00, 0.0, 0.0000
5.45100, 2.00, 0.0, 0.0000
5.45300, 2.00, 0.0, 0.0000
5.45500, 2.00, 0.0, 0.0000
5.45700, 2.00, 0.0, 0.0000
5.45900, 2.00, 3.0, 1.7321
5.46100, 2.00, 0.0, 0.0000
5.46300, 2.00, 0.0, 0.0000
5.46500, 2.00, 0.0, 0.0000
5.46700, 2.00, 1.0, 1.0000
5.46900, 2.00, 1.0, 1.0000
5.47100, 2.00, 2.0, 1.4142
5.47300, 2.00, 0.0, 0.0000
5.47500, 2.00, 1.0, 1.0000
5.47700, 2.00, 0.0, 0.0000
5.47900, 2.00, 0.0, 0.0000
5.48100, 2.00, 2.0, 1.4142
5.48300, 2.00, 0.0, 0.0000
5.48500, 2.00, 1.0, 1.0000
5.48700, 2.00, 0.0, 0.0000
5.48900, 2.00, 1.0, 1.0000
5.49100, 2.00, 0.0, 0.0000
5.49300, 2.00, 1.0, 1.0000
5.49500, 2.00, 0.0, 0.0000
5.49700, 2.00, 0.0, 0.0000
5.49900, 2.00, 0.0, 0.0000
5.50100, 2.00, 2.0, 1.4142
5.50300, 2.00, 0.0, 0.0000
5.50500, 2.00, 0.0, 0.0000
5.50700, 2.00, 0.0, 0.0000
5.50900, 2.00, 0.0, 0.0000
5.51100, 2.00, 1.0, 1.0000
5.51300, 2.00, 0.0, 0.0000
5.51500, 2.00, 1.0, 1.0000
5.51700, 2.00, 0.0, 0.0000
5.51900, 2.00, 1.0, 1.0000
5.52100, 2.00, 1.0, 1.0000
5.52300, 2.00, 0.0, 0.0000
5.52500, 2.00, 0.0, 0.0000
5.52700, 2.00, 0.0, 0.0000
5.52900, 2.00, 2.0, 1.4142
5.53100, 2.00, 2.0, 1.4142
5.53300, 2.00, 2.0, 1.4142
5.53500, 2.00, 2.0, 1.4142
5.53700, 2.00, 1.0, 1.0000
5.53900, 2.00, 0.0, 0.0000
5.54100, 2.00, 0.0, 0.0000
5.54300, 2.00, 1.0, 1.0000
5.54500, 2.00, 1.0, 1.0000
5.54700, 2.00, 0.0, 0.0000
5.54900, 2.00, 2.0, 1.4142
5.55100, 2.00, 1.0, 1.0000
5.55300, 2.00, 0.0, 0.0000
5.55500, 2.00, 1.0, 1.0000
5.55700, 2.00, 2.0, 1.4142
5.55900, 2.00, 0.0, 0.0000
5.56100, 2.00, 0.0, 0.0000
5.56300, 2.00, 0.0, 0.0000
5.56500, 2.00, 0.0, 0.0000
5.56700, 2.00, 0.0, 0.0000
5.56900, 2.00, 0.0, 0.0000
5.57100, 2.00, 0.0, 0.0000
5.57300, 2.00, 1.0, 1.0000
5.57500, 2.00, 1.0, 1.0000
5.57700, 2.00, 1.0, 1.0000
5.57900, 2.00, 0.0, 0.0000
5.58100, 2.00, 0.0, 0.0000
5.58300, 2.00, 0.0, 0.0000
5.58500, 2.00, 1.0, 1.0000
5.58700, 2.00, 1.0, 1.0000
5.58900, 2.00, 0.0, 0.0000
5.59100, 2.00, 3.0, 1.7321
5.59300, 2.00, 1.0, 1.0000
5.59500, 2.00, 1.0, 1.0000
5.59700, 2.00, 0.0, 0.0000
5.59900, 2.00, 0.0, 0.0000
5.60100, 2.00, 1.0, 1.0000
5.60300, 2.00, 0.0, 0.0000
5.60500, 2.00, 1.0, 1.0000
5.60700, 2.00, 0.0, 0.0000
5.60900, 2.00, 0.0, 0.0000
5.61100, 2.00, 1.0, 1.0000
5.61300, 2.00, 1.0, 1.0000
5.61500, 2.00, 0.0, 0.0000
5.61700, 2.00, 0.0, 0.0000
5.61900, 2.00, 1.0, 1.0000
5.62100, 2.00, 2.0, 1.4142
5.62300, 2.00, 0.0, 0.0000
5.62500, 2.00, 1.0, 1.0000
5.62700, 2.00, 0.0, 0.0000
5.62900, 2.00, 1.0, 1.0000
5.63100, 2.00, 0.0, 0.0000
5.63300, 2.00, 0.0, 0.0000
5.63500, 2.00, 0.0, 0.0000
5.63700, 2.00, 1.0, 1.0000
5.63900, 2.00, 0.0, 0.0000
5.64100, 2.00, 0.0, 0.0000
5.64300, 2.00, 2.0, 1.4142
5.64500, 2.00, 0.0, 0.0000
5.64700, 2.00, 0.0, 0.0000
5.64900, 2.00, 0.0, 0.0000
5.65100, 2.00, 2.0, 1.4142
5.65300, 2.00, 0.0, 0.0000
5.65500, 2.00, 2.0, 1.4142
5.65700, 2.00, 2.0, 1.4142
5.65900, 2.00, 1.0, 1.0000
5.66100, 2.00, 1.0, 1.0000
5.66300, 2.00, 2.0, 1.4142
5.66500, 2.00, 2.0, 1.4142
5.66700, 2.00, 0.0, 0.0000
5.66900, 2.00, 1.0, 1.0000
5.67100, 2.00, 1.0, 1.0000
5.67300, 2.00, 0.0, 0.0000
5.67500, 2.00, 0.0, 0.0000
5.67700, 2.00, 1.0, 1.0000
5.67900, 2.00, 2.0, 1.4142
5.68100, 2.00, 0.0, 0.0000
5.68300, 2.00, 0.0, 0.0000
5.68500, 2.00, 0.0, 0.0000
5.68700, 2.00, 3.0, 1.7321
5.68900, 2.00, 1.0, 1.0000
5.69100, 2.00, 1.0, 1.0000
5.69300, 2.00, 0.0, 0.0000
5.69500, 2.00, 0.0, 0.0000
5.69700, 2.00, 2.0, 1.4142
5.69900, 2.00, 2.0, 1.4142
5.70100, 2.00, 1.0, 1.0000
5.70300, 2.00, 1.0, 1.0000
5.70500, 2.00, 1.0, 1.0000
5.70700, 2.00, 1.0, 1.0000
5.70900, 2.00, 0.0, 0.0000
5.71100, 2.00, 1.0, 1.0000
5.71300, 2.00, 4.0, 2.0000
5.71500, 2.00, 1.0, 1.0000
5.71700, 2.00, 1.0, 1.0000
5.71900, 2.00, 0.0, 0.0000
5.72100, 2.00, 0.0, 0.0000
5.72300, 2.00, 1.0, 1.0000
5.72500, 2.00, 1.0, 1.0000
5.72700, 2.00, 1.0, 1.0000
5.72900, 2.00, 4.0, 2.0000
5.73100, 2.00, 1.0, 1.0000
5.73300, 2.00, 0.0, 0.0000
5.73500, 2.00, 0.0, 0.0000
5.73700, 2.00, 1.0, 1.0000
5.73900, 2.00, 0.0, 0.0000
5.74100, 2.00, 1.0, 1.0000
5.74300, 2.00, 1.0, 1.0000
5.74500, 2.00, 1.0, 1.0000
5.74700, 2.00, 2.0, 1.4142
5.74900, 2.00, 1.0, 1.0000
5.75100, 2.00, 1.0, 1.0000
5.75300, 2.00, 1.0, 1.0000
5.75500, 2.00, 2.0, 1.4142
5.75700, 2.00, 1.0, 1.0000
5.75900, 2.00, 1.0, 1.0000
5.76100, 2.00, 0.0, 0.0000
5.76300, 2.00, 0.0, 0.0000
5.76500, 2.00, 0.0, 0.0000
5.76700, 2.00, 2.0, 1.4142
5.76900, 2.00, 0.0, 0.0000
5.77100, 2.00, 0.0, 0.0000
5.77300, 2.00, 1.0, 1.0000
5.77500, 2.00, 2.0, 1.4142
5.77700, 2.00, 1.0, 1.0000
5.77900, 2.00, 1.0, 1.0000
5.78100, 2.00, 2.0, 1.4142
5.78300, 2.00, 2.0, 1.4142
5.78500, 2.00, 2.0, 1.4142
5.78700, 2.00, 1.0, 1.0000
5.78900, 2.00, 3.0, 1.7321
5.79100, 2.00, 2.0, 1.4142
5.79300, 2.00, 2.0, 1.4142
5.79500, 2.00, 0.0, 0.0000
5.79700, 2.00, 0.0, 0.0000
5.79900, 2.00, 2.0, 1.4142
5.80100, 2.00, 1.0, 1.0000
5.80300, 2.00, 1.0, 1.0000
5.80500, 2.00, 1.0, 1.0000
5.80700, 2.00, 0.0, 0.0000
5.80900, 2.00, 2.0, 1.4142
5.81100, 2.00, 3.0, 1.7321
5.81300, 2.00, 2.0, 1.4142
5.81500, 2.00, 1.0, 1.0000
5.81700, 2.00, 5.0, 2.2361
5.81900, 2.00, 2.0, 1.4142
5.82100, 2.00, 0.0, 0.0000
5.82300, 2.00, 1.0, 1.0000
5.82500, 2.00, 2.0, 1.4142
5.82700, 2.00, 3.0, 1.7321
5.82900, 2.00, 3.0, 1.7321
5.83100, 2.00, 1.0, 1.0000
5.83300, 2.00, 1.0, 1.0000
5.83500, 2.00, 1.0, 1.0000
5.83700, 2.00, 1.0, 1.0000
5.83900, 2.00, 1.0, 1.0000
5.84100, 2.00, 1.0, 1.0000
5.84300, 2.00, 0.0, 0.0000
5.84500, 2.00, 1.0, 1.0000
5.84700, 2.00, 2.0, 1.4142
5.84900, 2.00, 0.0, 0.0000
5.85100, 2.00, 1.0, 1.0000
5.85300, 2.00, 0.0, 0.0000
5.85500, 2.00, 0.0, 0.0000
5.85700, 2.00, 0.0, 0.0000
5.85900, 2.00, 0.0, 0.0000
5.86100, 2.00, 0.0, 0.0000
5.86300, 2.00, 0.0, 0.0000
5.86500, 2.00, 2.0, 1.4142
5.86700, 2.00, 0.0, 0.0000
5.86900, 2.00, 0.0, 0.0000
5.87100, 2.00, 1.0, 1.0000
5.87300, 2.00, 0.0, 0.0000
5.87500, 2.00, 0.0, 0.0000
5.87700, 2.00, 1.0, 1.0000
5.87900, 2.00, 0.0, 0.0000
5.88100, 2.00, 2.0, 1.4142
5.88300, 2.00, 1.0, 1.0000
5.88500, 2.00, 0.0, 0.0000
5.88700, 2.00, 0.0, 0.0000
5.88900, 2.00, 0.0, 0.0000
5.89100, 2.00, 0.0, 0.0000
5.89300, 2.00, 2.0, 1.4142
5.89500, 2.00, 1.0, 1.0000
5.89700, 2.00, 1.0, 1.0000
5.89900, 2.00, 0.0, 0.0000
5.90100, 2.00, 0.0, 0.0000
5.90300, 2.00, 0.0, 0.0000
5.90500, 2.00, 1.0, 1.0000
5.90700, 2.00, 0.0, 0.0000
5.90900, 2.00, 0.0, 0.0000
5.91100, 2.00, 0.0, 0.0000
5.91300, 2.00, 0.0, 0.0000
5.91500, 2.00, 0.0, 0.0000
5.91700, 2.00, 1.0, 1.0000
5.91900, 2.00, 0.0, 0.0000
5.92100, 2.00, 0.0, 0.0000
5.92300, 2.00, 0.0, 0.0000
5.92500, 2.00, 0.0, 0.0000
5.92700, 2.00, 0.0, 0.0000
5.92900, 2.00, 0.0, 0.0000
5.93100, 2.00, 0.0, 0.0000
5.93300, 2.00, 0.0, 0.0000
5.93500, 2.00, 0.0, 0.0000
5.93700, 2.00, 0.0, 0.0000
5.93900, 2.00, 0.0, 0.0000
5.94100, 2.00, 2.0, 1.4142
5.94300, 2.00, 0.0, 0.0000
5.94500, 2.00, 1.0, 1.0000
5.94700, 2.00, 0.0, 0.0000
5.94900, 2.00, 1.0, 1.0000
5.95100, 2.00, 1.0, 1.0000
5.95300, 2.00, 1.0, 1.0000
5.95500, 2.00, 1.0, 1.0000
5.95700, 2.00, 1.0, 1.0000
5.95900, 2.00, 0.0, 0.0000
5.96100, 2.00, 0.0, 0.0000
5.96300, 2.00, 1.0, 1.0000
5.96500, 2.00, 0.0, 0.0000
5.96700, 2.00, 1.0, 1.0000
5.96900, 2.00, 1.0, 1.0000
5.97100, 2.00, 1.0, 1.0000
5.97300, 2.00, 0.0, 0.0000
5.97500, 2.00, 0.0, 0.0000
5.97700, 2.00, 0.0, 0.0000
5.97900, 2.00, 0.0, 0.0000
5.98100, 2.00, 0.0, 0.0000
5.98300, 2.00, 1.0, 1.0000
5.98500, 2.00, 0.0, 0.0000
5.98700, 2.00, 0.0, 0.0000
5.98900, 2.00, 0.0, 0.0000
5.99100, 2.00, 1.0, 1.0000
5.99300, 2.00, 0.0, 0.0000
5.99500, 2.00, 0.0, 0.0000
5.99700, 2.00, 1.0, 1.0000
5.99900, 2.00, 0.0, 0.0000
