Angle, Intensity
-0.099,0
-0.097,0
-0.095,0
-0.093,0
-0.091,0
-0.089,0
-0.087,0
-0.085,0
-0.083,1
-0.081,0
-0.079,0
-0.077,0
-0.075,0
-0.073,0
-0.071,0
-0.069,0
-0.067,1
-0.065,0
-0.063,1
-0.061,0
-0.059,0
-0.057,0
-0.055,0
-0.053,3
-0.051,2
-0.049,0
-0.047,0
-0.045,0
-0.043,0
-0.041,0
-0.039,0
-0.037,0
-0.035,0
-0.033,1
-0.031,1
-0.029,2
-0.027,1
-0.025,5
-0.023,4
-0.021,2
-0.019,11
-0.017,8
-0.015,18
-0.013,140
-0.011,751
-0.009,4469
-0.007,25446
-0.005,128356
-0.003,525836
-0.001,1459197
0.001,3005045
0.003,4067560
0.005,3837683
0.007,2970808
0.009,2022830
0.011,1301809
0.013,861400
0.015,688653
0.017,585164
0.019,555955
0.021,560547
0.023,584467
0.025,616064
0.027,654148
0.029,695130
0.031,739213
0.033,783271
0.035,827867
0.037,869913
0.039,913825
0.041,955136
0.043,998151
0.045,956957
0.047,1002363
0.049,1042586
0.051,1068793
0.053,1107264
0.055,1148436
0.057,1199463
0.059,1211654
0.061,1246183
0.063,1275164
0.065,1321519
0.067,1334002
0.069,1380649
0.071,1412915
0.073,1461971
0.075,1473213
0.077,1510662
0.079,1539570
0.081,1561689
0.083,1598919
0.085,1640675
0.087,1669437
0.089,1678635
0.091,1727983
0.093,1742583
0.095,1780397
0.097,1779302
0.099,1824416
0.101,1850112
0.103,1877925
0.105,1872450
0.107,1896686
0.109,1919024
0.111,1948151
0.113,1990272
0.115,1995090
0.117,2010639
0.119,2055534
0.121,2062980
0.123,2092545
0.125,2128534
0.127,2100721
0.129,2152989
0.131,2149704
0.133,2197081
0.135,2220660
0.137,2226865
0.139,2265847
0.141,2251612
0.143,2254897
0.145,2303442
0.147,2315049
0.149,2308406
0.151,2351914
0.153,2344687
0.155,2371770
0.157,2374471
0.159,2389363
0.161,2396955
0.163,2422213
0.165,2459589
0.167,2417687
0.169,2459954
0.171,2480394
0.173,2480759
0.175,2499009
0.177,2504922
0.179,2533173
0.181,2521201
0.183,2547846
0.185,2541203
0.187,2550985
0.189,2568578
0.191,2574783
0.193,2597486
0.195,2608144
0.197,2621868
0.199,2614422
0.201,2625737
0.203,2619532
0.205,2631212
0.207,2647564
0.209,2680852
0.211,2635592
0.213,2655740
0.215,2655886
0.217,2676034
0.219,2645593
0.221,2676764
0.223,2652455
0.225,2670194
0.227,2696474
0.229,2694357
0.231,2663478
0.233,2701219
0.235,2669026
0.237,2681874
0.239,2691583
0.241,2716549
0.243,2666909
0.245,2692459
0.247,2669683
0.249,2665084
0.251,2667566
0.253,2672603
0.255,2644498
0.257,2669099
0.259,2623693
0.261,2631358
0.263,2627927
0.265,2612743
0.267,2613473
0.269,2551496
0.271,2550547
0.273,2514339
0.275,2476306
0.277,2447982
0.279,2381990
0.281,2349578
0.283,2271833
0.285,2167443
0.287,2022903
0.289,1898949
0.291,1762001
0.293,1609650
0.295,1466424
0.297,1335243
0.299,1206690
0.301,1092299
0.303,998932
0.305,933013
0.307,854246
0.309,802854
0.311,799524
0.313,746749
0.315,698561
0.317,656347
0.319,617906
0.321,583631
0.323,547724
0.325,519334
0.327,491878
0.329,467513
0.331,445935
0.333,421887
0.335,402117
0.337,383749
0.339,367513
0.341,351886
0.343,337650
0.345,326612
0.347,312442
0.349,300819
0.351,288903
0.353,278390
0.355,266997
0.357,257685
0.359,248238
0.361,239100
0.363,229724
0.365,221537
0.367,212778
0.369,204218
0.371,197796
0.373,190354
0.375,184316
0.377,178512
0.379,173048
0.381,168135
0.383,163389
0.385,157588
0.387,153309
0.389,148531
0.391,144536
0.393,139632
0.395,136553
0.397,132131
0.399,128446
0.401,124678
0.403,121380
0.405,117415
0.407,114596
0.409,111167
0.411,108345
0.413,105356
0.415,102306
0.417,99582
0.419,98003
0.421,94095
0.423,91960
0.425,90597
0.427,87643
0.429,85182
0.431,82821
0.433,81503
0.435,79682
0.437,77422
0.439,75960
0.441,74675
0.443,73280
0.445,70496
0.447,69558
0.449,68310
0.451,66682
0.453,65036
0.455,63383
0.457,62460
0.459,61071
0.461,58977
0.463,57553
0.465,56923
0.467,55641
0.469,54652
0.471,52505
0.473,51562
0.475,50871
0.477,50917
0.479,49372
0.481,47585
0.483,47254
0.485,46975
0.487,45870
0.489,44106
0.491,42952
0.493,43351
0.495,42984
0.497,41288
0.499,40283
0.501,39721
0.503,40080
0.505,38846
0.507,36729
0.509,36000
0.511,36175
0.513,35562
0.515,34497
0.517,33630
0.519,33677
0.521,34014
0.523,33416
0.525,31825
0.527,31034
0.529,30498
0.531,31263
0.533,30024
0.535,28944
0.537,28658
0.539,28828
0.541,28643
0.543,27649
0.545,26213
0.547,26443
0.549,26469
0.551,26240
0.553,25438
0.555,24041
0.557,23895
0.559,24507
0.561,24043
0.563,23011
0.565,22575
0.567,22829
0.569,23315
0.571,22410
0.573,21251
0.575,20469
0.577,20995
0.579,21736
0.581,20718
0.583,19836
0.585,19675
0.587,20146
0.589,19980
0.591,19194
0.593,18276
0.595,18194
0.597,19083
0.599,18603
0.601,17716
0.603,16695
0.605,17049
0.607,17582
0.609,16968
0.611,16212
0.613,15372
0.615,16180
0.617,16616
0.619,16553
0.621,15198
0.623,14876
0.625,15130
0.627,15408
0.629,14953
0.631,13893
0.633,13568
0.635,14172
0.637,14501
0.639,13818
0.641,12919
0.643,12429
0.645,13272
0.647,13732
0.649,13110
0.651,12131
0.653,11778
0.655,12606
0.657,13187
0.659,12457
0.661,11613
0.663,11579
0.665,12189
0.667,12344
0.669,11645
0.671,10827
0.673,10919
0.675,11535
0.677,11733
0.679,10853
0.681,10215
0.683,10134
0.685,10855
0.687,10835
0.689,10445
0.691,9401
0.693,9664
0.695,10426
0.697,10566
0.699,9737
0.701,9201
0.703,9349
0.705,9937
0.707,9948
0.709,9170
0.711,8816
0.713,8992
0.715,9448
0.717,9856
0.719,9049
0.721,8111
0.723,8401
0.725,8880
0.727,9051
0.729,8601
0.731,7844
0.733,7814
0.735,8417
0.737,8780
0.739,8197
0.741,7511
0.743,7463
0.745,7981
0.747,8245
0.749,7833
0.751,7021
0.753,6930
0.755,7428
0.757,7980
0.759,7842
0.761,6948
0.763,6848
0.765,7338
0.767,7640
0.769,7420
0.771,6712
0.773,6153
0.775,6451
0.777,7200
0.779,7103
0.781,6664
0.783,6144
0.785,6464
0.787,6923
0.789,7223
0.791,6607
0.793,5779
0.795,5791
0.797,6593
0.799,6796
0.801,6409
0.803,5583
0.805,5459
0.807,6171
0.809,6476
0.811,6116
0.813,5420
0.815,5383
0.817,5822
0.819,6429
0.821,6133
0.823,5408
0.825,4935
0.827,5473
0.829,6191
0.831,6136
0.833,5446
0.835,4888
0.837,5405
0.839,5829
0.841,5960
0.843,5211
0.845,4761
0.847,4919
0.849,5574
0.851,5622
0.853,5205
0.855,4710
0.857,4644
0.859,5136
0.861,5515
0.863,5190
0.865,4478
0.867,4269
0.869,4808
0.871,5214
0.873,5060
0.875,4424
0.877,4143
0.879,4437
0.881,5226
0.883,5118
0.885,4418
0.887,4225
0.889,4394
0.891,5171
0.893,5271
0.895,4736
0.897,4193
0.899,4261
0.901,4846
0.903,4955
0.905,4550
0.907,3952
0.909,4053
0.911,4499
0.913,4911
0.915,4697
0.917,4044
0.919,4021
0.921,4475
0.923,4764
0.925,4528
0.927,3786
0.929,3614
0.931,4184
0.933,4620
0.935,4540
0.937,3994
0.939,3633
0.941,3947
0.943,4585
0.945,4338
0.947,4011
0.949,3399
0.951,3753
0.953,4345
0.955,4487
0.957,4059
0.959,3548
0.961,3717
0.963,4315
0.965,4548
0.967,4220
0.969,3620
0.971,3574
0.973,4164
0.975,4663
0.977,4339
0.979,3613
0.981,3393
0.983,3593
0.985,4215
0.987,4205
0.989,3712
0.991,3377
0.993,3532
0.995,4169
0.997,4422
0.999,4029
1.001,3300
1.003,3295
1.005,3772
1.007,4159
1.009,4078
1.011,3537
1.013,3221
1.015,3687
1.017,4315
1.019,4234
1.021,3535
1.023,3181
1.025,3284
1.027,3955
1.029,4293
1.031,3865
1.033,3282
1.035,3235
1.037,3765
1.039,4126
1.041,4039
1.043,3314
1.045,3031
1.047,3424
1.049,4054
1.051,3995
1.053,3478
1.055,3020
1.057,2908
1.059,3555
1.061,3804
1.063,3637
1.065,3066
1.067,3189
1.069,3808
1.071,4203
1.073,4078
1.075,3433
1.077,3237
1.079,3505
1.081,4157
1.083,4329
1.085,3711
1.087,3336
1.089,3814
1.091,4682
1.093,5105
1.095,4466
1.097,3783
1.099,3486
1.101,3978
1.103,4623
1.105,4211
1.107,3466
1.109,3106
1.111,3366
1.113,4203
1.115,4311
1.117,3674
1.119,3217
1.121,3428
1.123,4263
1.125,4582
1.127,4060
1.129,3443
1.131,3507
1.133,4250
1.135,4974
1.137,4676
1.139,3576
1.141,3269
1.143,3590
1.145,4322
1.147,4301
1.149,3637
1.151,3224
1.153,3737
1.155,4608
1.157,4883
1.159,4435
1.161,3668
1.163,3622
1.165,4482
1.167,5060
1.169,4492
1.171,3647
1.173,3314
1.175,3938
1.177,4725
1.179,4711
1.181,3799
1.183,3170
1.185,3485
1.187,4419
1.189,4720
1.191,4089
1.193,3847
1.195,4421
1.197,5563
1.199,5966
1.201,5076
1.203,4069
1.205,4070
1.207,4914
1.209,5889
1.211,5444
1.213,4219
1.215,3623
1.217,4279
1.219,5557
1.221,5592
1.223,4768
1.225,4067
1.227,4728
1.229,5889
1.231,6609
1.233,5998
1.235,4499
1.237,4109
1.239,5040
1.241,6171
1.243,5871
1.245,4676
1.247,3980
1.249,4902
1.251,6534
1.253,7035
1.255,6051
1.257,4425
1.259,4048
1.261,5284
1.263,6052
1.265,5947
1.267,4956
1.269,4812
1.271,6536
1.273,8599
1.275,9232
1.277,7845
1.279,6207
1.281,7306
1.283,10118
1.285,11881
1.287,10761
1.289,8442
1.291,7351
1.293,8931
1.295,11232
1.297,11604
1.299,9321
1.301,7013
1.303,7499
1.305,9620
1.307,11087
1.309,9995
1.311,8402
1.313,9211
1.315,13208
1.317,16693
1.319,16673
1.321,12987
1.323,9906
1.325,11158
1.327,14863
1.329,16983
1.331,14584
1.333,11715
1.335,12494
1.337,17800
1.339,22470
1.341,22271
1.343,17226
1.345,13974
1.347,17023
1.349,23374
1.351,26178
1.353,22344
1.355,17448
1.357,18342
1.359,26253
1.361,33305
1.363,32743
1.365,25476
1.367,21995
1.369,28678
1.371,40023
1.373,44740
1.375,38061
1.377,29636
1.379,32210
1.381,45284
1.383,57682
1.385,56093
1.387,44654
1.389,40542
1.391,55559
1.393,78388
1.395,88995
1.397,77141
1.399,60043
1.401,63453
1.403,92983
1.405,121876
1.407,123407
1.409,99458
1.411,87977
1.413,118560
1.415,176142
1.417,211937
1.419,192934
1.421,151779
1.423,151969
1.425,225909
1.427,323516
1.429,365154
1.431,323199
1.433,269483
1.435,315085
1.437,483443
1.439,675216
1.441,757113
1.443,698809
1.445,632488
1.447,754831
1.449,1025796
1.451,1435180
1.453,1723603
1.455,1757913
1.457,1632572
1.459,1504311
1.461,1521320
1.463,1759154
1.465,2107072
1.467,2353228
1.469,2447325
1.471,2351768
1.473,2107510
1.475,1812955
1.477,1474965
1.479,1162233
1.481,910748
1.483,803528
1.485,701093
1.487,638119
1.489,554938
1.491,439376
1.493,303470
1.495,180001
1.497,96045
1.499,53515
1.501,39604
1.503,36518
1.505,32388
1.507,25891
1.509,19021
1.511,14274
1.513,10969
1.515,8307
1.517,6390
1.519,6179
1.521,7759
1.523,8936
1.525,8998
1.527,7960
1.529,6357
1.531,5698
1.533,5284
1.535,5063
1.537,4464
1.539,4310
1.541,4811
1.543,5643
1.545,5849
1.547,5041
1.549,3812
1.551,2921
1.553,2828
1.555,3271
1.557,3306
1.559,2861
1.561,2364
1.563,2104
1.565,2397
1.567,2545
1.569,2395
1.571,1868
1.573,1679
1.575,1866
1.577,1994
1.579,1933
1.581,1638
1.583,1335
1.585,1468
1.587,1793
1.589,1812
1.591,1600
1.593,1253
1.595,1147
1.597,1282
1.599,1442
1.601,1460
1.603,1102
1.605,930
1.607,819
1.609,1006
1.611,1037
1.613,859
1.615,712
1.617,731
1.619,1058
1.621,1073
1.623,1007
1.625,728
1.627,622
1.629,599
1.631,669
1.633,611
1.635,541
1.637,432
1.639,550
1.641,667
1.643,764
1.645,681
1.647,522
1.649,483
1.651,507
1.653,615
1.655,581
1.657,458
1.659,367
1.661,378
1.663,519
1.665,467
1.667,410
1.669,301
1.671,303
1.673,385
1.675,416
1.677,370
1.679,289
1.681,274
1.683,274
1.685,368
1.687,369
1.689,295
1.691,240
1.693,227
1.695,269
1.697,232
1.699,217
1.701,182
1.703,191
1.705,280
1.707,285
1.709,338
1.711,210
1.713,197
1.715,178
1.717,220
1.719,185
1.721,173
1.723,171
1.725,164
1.727,211
1.729,267
1.731,245
1.733,172
1.735,162
1.737,203
1.739,247
1.741,237
1.743,211
1.745,176
1.747,119
1.749,153
1.751,191
1.753,214
1.755,157
1.757,136
1.759,111
1.761,143
1.763,152
1.765,137
1.767,91
1.769,91
1.771,90
1.773,119
1.775,112
1.777,96
1.779,84
1.781,114
1.783,132
1.785,137
1.787,120
1.789,102
1.791,73
1.793,97
1.795,88
1.797,88
1.799,75
1.801,72
1.803,68
1.805,82
1.807,83
1.809,63
1.811,52
1.813,61
1.815,66
1.817,75
1.819,68
1.821,63
1.823,69
1.825,79
1.827,85
1.829,85
1.831,64
1.833,64
1.835,59
1.837,61
1.839,73
1.841,58
1.843,60
1.845,44
1.847,59
1.849,64
1.851,67
1.853,59
1.855,50
1.857,42
1.859,41
1.861,63
1.863,58
1.865,59
1.867,50
1.869,54
1.871,63
1.873,56
1.875,48
1.877,47
1.879,32
1.881,38
1.883,44
1.885,43
1.887,53
1.889,42
1.891,37
1.893,47
1.895,43
1.897,49
1.899,41
1.901,43
1.903,36
1.905,55
1.907,60
1.909,44
1.911,41
1.913,33
1.915,36
1.917,36
1.919,42
1.921,29
1.923,44
1.925,33
1.927,44
1.929,40
1.931,27
1.933,35
1.935,41
1.937,24
1.939,34
1.941,39
1.943,44
1.945,33
1.947,28
1.949,29
1.951,32
1.953,34
1.955,32
1.957,22
1.959,29
1.961,25
1.963,29
1.965,40
1.967,24
1.969,30
1.971,28
1.973,26
1.975,25
1.977,20
1.979,17
1.981,23
1.983,22
1.985,22
1.987,23
1.989,16
1.991,37
1.993,16
1.995,28
1.997,23
1.999,26
2.001,20
2.003,25
2.005,22
2.007,21
2.009,25
2.011,24
2.013,22
2.015,23
2.017,28
2.019,26
2.021,31
2.023,21
2.025,22
2.027,17
2.029,27
2.031,21
2.033,26
2.035,32
2.037,37
2.039,30
2.041,25
2.043,31
2.045,33
2.047,27
2.049,19
2.051,25
2.053,20
2.055,16
2.057,10
2.059,33
2.061,31
2.063,34
2.065,29
2.067,24
2.069,31
2.071,30
2.073,22
2.075,38
2.077,10
2.079,26
2.081,18
2.083,29
2.085,35
2.087,38
2.089,23
2.091,16
2.093,25
2.095,31
2.097,24
2.099,21
2.101,20
2.103,20
2.105,28
2.107,30
2.109,24
2.111,20
2.113,24
2.115,25
2.117,25
2.119,31
2.121,18
2.123,19
2.125,18
2.127,27
2.129,28
2.131,16
2.133,25
2.135,22
2.137,20
2.139,26
2.141,23
2.143,20
2.145,19
2.147,23
2.149,23
2.151,27
2.153,15
2.155,18
2.157,26
2.159,20
2.161,34
2.163,29
2.165,21
2.167,23
2.169,33
2.171,18
2.173,24
2.175,33
2.177,26
2.179,32
2.181,22
2.183,24
2.185,36
2.187,28
2.189,19
2.191,31
2.193,25
2.195,25
2.197,25
2.199,17
2.201,21
2.203,19
2.205,25
2.207,33
2.209,19
2.211,20
2.213,19
2.215,27
2.217,21
2.219,14
2.221,21
2.223,26
2.225,22
2.227,28
2.229,16
2.231,19
2.233,15
2.235,28
2.237,32
2.239,21
2.241,15
2.243,17
2.245,19
2.247,22
2.249,27
2.251,41
2.253,15
2.255,17
2.257,26
2.259,17
2.261,28
2.263,19
2.265,25
2.267,16
2.269,19
2.271,30
2.273,11
2.275,25
2.277,23
2.279,22
2.281,33
2.283,30
2.285,26
2.287,22
2.289,26
2.291,30
2.293,29
2.295,26
2.297,20
2.299,19
2.301,19
2.303,19
2.305,23
2.307,20
2.309,15
2.311,15
2.313,22
2.315,31
2.317,30
2.319,24
2.321,25
2.323,27
2.325,17
2.327,25
2.329,25
2.331,23
2.333,15
2.335,18
2.337,16
2.339,25
2.341,14
2.343,19
2.345,24
2.347,18
2.349,35
2.351,21
2.353,24
2.355,21
2.357,23
2.359,29
2.361,21
2.363,22
2.365,18
2.367,14
2.369,24
2.371,22
2.373,25
2.375,23
2.377,23
2.379,25
2.381,22
2.383,20
2.385,16
2.387,16
2.389,13
2.391,18
2.393,27
2.395,25
2.397,19
2.399,27
2.401,21
2.403,26
2.405,16
2.407,22
2.409,21
2.411,17
2.413,25
2.415,18
2.417,19
2.419,22
2.421,16
2.423,18
2.425,15
2.427,18
2.429,23
2.431,25
2.433,22
2.435,31
2.437,28
2.439,26
2.441,28
2.443,24
2.445,22
2.447,29
2.449,20
2.451,25
2.453,18
2.455,25
2.457,26
2.459,22
2.461,35
2.463,25
2.465,23
2.467,32
2.469,18
2.471,30
2.473,19
2.475,22
2.477,28
2.479,37
2.481,34
2.483,26
2.485,36
2.487,27
2.489,27
2.491,35
2.493,31
2.495,26
2.497,22
2.499,32
2.501,34
2.503,33
2.505,34
2.507,24
2.509,24
2.511,24
2.513,32
2.515,29
2.517,26
2.519,29
2.521,33
2.523,39
2.525,31
2.527,27
2.529,34
2.531,22
2.533,38
2.535,33
2.537,42
2.539,32
2.541,28
2.543,31
2.545,40
2.547,37
2.549,29
2.551,19
2.553,22
2.555,23
2.557,30
2.559,36
2.561,25
2.563,27
2.565,22
2.567,34
2.569,31
2.571,45
2.573,36
2.575,30
2.577,39
2.579,28
2.581,51
2.583,41
2.585,39
2.587,40
2.589,40
2.591,42
2.593,45
2.595,37
2.597,42
2.599,41
2.601,39
2.603,55
2.605,47
2.607,46
2.609,49
2.611,61
2.613,76
2.615,66
2.617,71
2.619,38
2.621,62
2.623,61
2.625,71
2.627,52
2.629,54
2.631,54
2.633,67
2.635,60
2.637,55
2.639,54
2.641,69
2.643,74
2.645,93
2.647,75
2.649,93
2.651,82
2.653,74
2.655,78
2.657,95
2.659,110
2.661,98
2.663,80
2.665,99
2.667,104
2.669,109
2.671,115
2.673,95
2.675,94
2.677,121
2.679,114
2.681,118
2.683,134
2.685,119
2.687,132
2.689,151
2.691,165
2.693,159
2.695,173
2.697,141
2.699,147
2.701,186
2.703,181
2.705,181
2.707,174
2.709,176
2.711,220
2.713,186
2.715,215
2.717,195
2.719,222
2.721,223
2.723,290
2.725,299
2.727,282
2.729,279
2.731,261
2.733,302
2.735,354
2.737,377
2.739,407
2.741,333
2.743,336
2.745,363
2.747,401
2.749,390
2.751,374
2.753,373
2.755,403
2.757,444
2.759,467
2.761,557
2.763,555
2.765,564
2.767,553
2.769,572
2.771,651
2.773,669
2.775,620
2.777,667
2.779,694
2.781,788
2.783,824
2.785,772
2.787,825
2.789,753
2.791,828
2.793,981
2.795,959
2.797,1001
2.799,885
2.801,886
2.803,984
2.805,1100
2.807,1234
2.809,1173
2.811,1076
2.813,1087
2.815,1239
2.817,1441
2.819,1520
2.821,1391
2.823,1247
2.825,1258
2.827,1480
2.829,1659
2.831,1827
2.833,1637
2.835,1405
2.837,1389
2.839,1710
2.841,2212
2.843,2495
2.845,2374
2.847,1971
2.849,1745
2.851,2029
2.853,2774
2.855,3560
2.857,3934
2.859,3584
2.861,3071
2.863,2887
2.865,3629
2.867,4949
2.869,6520
2.871,7132
2.873,7060
2.875,6240
2.877,5625
2.879,5761
2.881,7369
2.883,9754
2.885,11685
2.887,12975
2.889,12195
2.891,10407
2.893,7987
2.895,5601
2.897,4154
2.899,3499
2.901,4055
2.903,5767
2.905,8137
2.907,11240
2.909,13806
2.911,16193
2.913,16994
2.915,16861
2.917,15409
2.919,13494
2.921,11452
2.923,9307
2.925,7571
2.927,6263
2.929,4925
2.931,3919
2.933,3057
2.935,2225
2.937,1598
2.939,1092
2.941,810
2.943,650
2.945,451
2.947,343
2.949,272
2.951,175
2.953,117
2.955,60
2.957,40
2.959,30
2.961,28
2.963,28
2.965,34
2.967,61
2.969,39
2.971,34
2.973,18
2.975,30
2.977,24
2.979,23
2.981,22
2.983,22
2.985,24
2.987,21
2.989,21
2.991,26
2.993,24
2.995,16
2.997,11
2.999,22
3.001,22
3.003,28
3.005,17
3.007,17
3.009,18
3.011,27
3.013,18
3.015,15
3.017,16
3.019,14
3.021,18
3.023,19
3.025,10
3.027,22
3.029,16
3.031,12
3.033,16
3.035,14
3.037,7
3.039,18
3.041,12
3.043,15
3.045,13
3.047,14
3.049,17
3.051,14
3.053,11
3.055,20
3.057,15
3.059,13
3.061,10
3.063,13
3.065,14
3.067,16
3.069,23
3.071,14
3.073,8
3.075,12
3.077,8
3.079,13
3.081,5
3.083,4
3.085,11
3.087,11
3.089,9
3.091,7
3.093,9
3.095,8
3.097,5
3.099,9
3.101,13
3.103,11
3.105,15
3.107,7
3.109,7
3.111,8
3.113,10
3.115,8
3.117,1
3.119,9
3.121,6
3.123,16
3.125,5
3.127,5
3.129,4
3.131,1
3.133,2
3.135,4
3.137,6
3.139,7
3.141,11
3.143,7
3.145,6
3.147,8
3.149,6
3.151,4
3.153,7
3.155,10
3.157,11
3.159,7
3.161,4
3.163,4
3.165,8
3.167,9
3.169,4
3.171,6
3.173,5
3.175,2
3.177,5
3.179,7
3.181,7
3.183,3
3.185,2
3.187,1
3.189,6
3.191,4
3.193,5
3.195,6
3.197,2
3.199,5
3.201,5
3.203,1
3.205,3
3.207,3
3.209,5
3.211,6
3.213,5
3.215,6
3.217,4
3.219,4
3.221,5
3.223,4
3.225,4
3.227,1
3.229,4
3.231,3
3.233,3
3.235,7
3.237,4
3.239,4
3.241,2
3.243,7
3.245,6
3.247,3
3.249,1
3.251,2
3.253,6
3.255,10
3.257,3
3.259,5
3.261,1
3.263,6
3.265,4
3.267,3
3.269,5
3.271,6
3.273,1
3.275,3
3.277,2
3.279,3
3.281,3
3.283,5
3.285,3
3.287,4
3.289,3
3.291,4
3.293,1
3.295,7
3.297,1
3.299,6
3.301,0
3.303,1
3.305,6
3.307,6
3.309,2
3.311,2
3.313,4
3.315,4
3.317,0
3.319,1
3.321,3
3.323,2
3.325,2
3.327,2
3.329,4
3.331,3
3.333,1
3.335,1
3.337,1
3.339,4
3.341,2
3.343,2
3.345,6
3.347,2
3.349,5
3.351,1
3.353,4
3.355,3
3.357,2
3.359,0
3.361,2
3.363,1
3.365,0
3.367,1
3.369,3
3.371,1
3.373,1
3.375,2
3.377,1
3.379,1
3.381,1
3.383,1
3.385,3
3.387,5
3.389,1
3.391,0
3.393,2
3.395,3
3.397,1
3.399,0
3.401,2
3.403,5
3.405,1
3.407,3
3.409,0
3.411,5
3.413,1
3.415,2
3.417,3
3.419,4
3.421,4
3.423,0
3.425,3
3.427,1
3.429,1
3.431,1
3.433,2
3.435,2
3.437,1
3.439,1
3.441,2
3.443,3
3.445,2
3.447,1
3.449,1
3.451,5
3.453,2
3.455,3
3.457,3
3.459,0
3.461,2
3.463,2
3.465,2
3.467,0
3.469,0
3.471,0
3.473,3
3.475,1
3.477,1
3.479,2
3.481,0
3.483,4
3.485,2
3.487,3
3.489,3
3.491,0
3.493,4
3.495,3
3.497,2
3.499,0
3.501,2
3.503,2
3.505,5
3.507,2
3.509,1
3.511,2
3.513,0
3.515,1
3.517,2
3.519,2
3.521,0
3.523,3
3.525,1
3.527,1
3.529,1
3.531,2
3.533,3
3.535,1
3.537,0
3.539,1
3.541,1
3.543,0
3.545,2
3.547,3
3.549,3
3.551,1
3.553,2
3.555,2
3.557,1
3.559,0
3.561,1
3.563,3
3.565,0
3.567,0
3.569,1
3.571,2
3.573,0
3.575,0
3.577,0
3.579,2
3.581,2
3.583,2
3.585,0
3.587,0
3.589,1
3.591,2
3.593,0
3.595,2
3.597,0
3.599,2
3.601,5
3.603,0
3.605,2
3.607,2
3.609,1
3.611,1
3.613,3
3.615,0
3.617,0
3.619,0
3.621,2
3.623,0
3.625,2
3.627,4
3.629,2
3.631,3
3.633,2
3.635,0
3.637,1
3.639,1
3.641,0
3.643,2
3.645,0
3.647,1
3.649,2
3.651,0
3.653,1
3.655,1
3.657,1
3.659,0
3.661,1
3.663,0
3.665,1
3.667,2
3.669,1
3.671,1
3.673,0
3.675,0
3.677,2
3.679,3
3.681,4
3.683,2
3.685,0
3.687,1
3.689,0
3.691,0
3.693,1
3.695,1
3.697,2
3.699,3
3.701,0
3.703,0
3.705,0
3.707,1
3.709,3
3.711,1
3.713,0
3.715,1
3.717,1
3.719,1
3.721,0
3.723,2
3.725,1
3.727,2
3.729,0
3.731,0
3.733,1
3.735,0
3.737,3
3.739,1
3.741,2
3.743,0
3.745,2
3.747,0
3.749,0
3.751,1
3.753,1
3.755,0
3.757,0
3.759,0
3.761,1
3.763,0
3.765,2
3.767,1
3.769,0
3.771,0
3.773,0
3.775,2
3.777,2
3.779,0
3.781,0
3.783,0
3.785,2
3.787,0
3.789,0
3.791,0
3.793,0
3.795,0
3.797,0
3.799,0
3.801,2
3.803,1
3.805,3
3.807,0
3.809,2
3.811,3
3.813,0
3.815,0
3.817,1
3.819,0
3.821,0
3.823,1
3.825,0
3.827,1
3.829,4
3.831,1
3.833,2
3.835,0
3.837,0
3.839,1
3.841,1
3.843,0
3.845,0
3.847,0
3.849,0
3.851,2
3.853,1
3.855,0
3.857,1
3.859,2
3.861,0
3.863,2
3.865,2
3.867,0
3.869,2
3.871,0
3.873,0
3.875,0
3.877,0
3.879,0
3.881,1
3.883,1
3.885,3
3.887,3
3.889,3
3.891,1
3.893,1
3.895,0
3.897,1
3.899,2
3.901,1
3.903,1
3.905,2
3.907,0
3.909,0
3.911,1
3.913,2
3.915,1
3.917,0
3.919,0
3.921,1
3.923,1
3.925,0
3.927,2
3.929,3
3.931,1
3.933,1
3.935,2
3.937,2
3.939,1
3.941,1
3.943,2
3.945,0
3.947,3
3.949,4
3.951,1
3.953,1
3.955,0
3.957,2
3.959,2
3.961,1
3.963,0
3.965,1
3.967,2
3.969,6
3.971,2
3.973,2
3.975,3
3.977,1
3.979,6
3.981,0
3.983,4
3.985,0
3.987,6
3.989,5
3.991,3
3.993,2
3.995,2
3.997,2
3.999,1
4.001,1
4.003,5
4.005,2
4.007,0
4.009,4
4.011,0
4.013,1
4.015,1
4.017,2
4.019,3
4.021,2
4.023,3
4.025,4
4.027,1
4.029,2
4.031,4
4.033,4
4.035,3
4.037,2
4.039,3
4.041,6
4.043,1
4.045,5
4.047,4
4.049,2
4.051,5
4.053,4
4.055,3
4.057,5
4.059,1
4.061,5
4.063,2
4.065,6
4.067,4
4.069,2
4.071,3
4.073,6
4.075,5
4.077,8
4.079,5
4.081,2
4.083,4
4.085,9
4.087,2
4.089,4
4.091,3
4.093,2
4.095,6
4.097,4
4.099,3
4.101,5
4.103,8
4.105,5
4.107,7
4.109,4
4.111,15
4.113,2
4.115,6
4.117,7
4.119,3
4.121,10
4.123,7
4.125,7
4.127,14
4.129,7
4.131,7
4.133,6
4.135,6
4.137,8
4.139,10
4.141,8
4.143,8
4.145,3
4.147,9
4.149,4
4.151,12
4.153,19
4.155,11
4.157,11
4.159,15
4.161,18
4.163,11
4.165,9
4.167,12
4.169,6
4.171,10
4.173,9
4.175,10
4.177,14
4.179,13
4.181,12
4.183,15
4.185,6
4.187,13
4.189,14
4.191,6
4.193,13
4.195,6
4.197,12
4.199,15
4.201,9
4.203,6
4.205,11
4.207,4
4.209,12
4.211,9
4.213,10
4.215,16
4.217,14
4.219,11
4.221,10
4.223,13
4.225,17
4.227,9
4.229,5
4.231,10
4.233,11
4.235,11
4.237,8
4.239,7
4.241,10
4.243,10
4.245,3
4.247,10
4.249,5
4.251,8
4.253,5
4.255,13
4.257,8
4.259,4
4.261,9
4.263,20
4.265,21
4.267,16
4.269,9
4.271,5
4.273,15
4.275,18
4.277,15
4.279,22
4.281,21
4.283,9
4.285,14
4.287,17
4.289,22
4.291,28
4.293,29
4.295,25
4.297,23
4.299,14
4.301,19
4.303,34
4.305,29
4.307,28
4.309,34
4.311,29
4.313,22
4.315,16
4.317,20
4.319,18
4.321,18
4.323,27
4.325,36
4.327,29
4.329,34
4.331,38
4.333,27
4.335,32
4.337,20
4.339,14
4.341,11
4.343,14
4.345,22
4.347,23
4.349,27
4.351,31
4.353,50
4.355,50
4.357,44
4.359,49
4.361,46
4.363,44
4.365,59
4.367,45
4.369,33
4.371,38
4.373,23
4.375,25
4.377,18
4.379,11
4.381,12
4.383,10
4.385,7
4.387,7
4.389,3
4.391,4
4.393,4
4.395,1
4.397,1
4.399,1
4.401,0
4.403,1
4.405,0
4.407,0
4.409,0
4.411,1
4.413,1
4.415,0
4.417,1
4.419,0
4.421,1
4.423,0
4.425,1
4.427,1
4.429,1
4.431,0
4.433,0
4.435,0
4.437,0
4.439,0
4.441,2
4.443,0
4.445,1
4.447,1
4.449,1
4.451,0
4.453,0
4.455,0
4.457,1
4.459,0
4.461,1
4.463,0
4.465,0
4.467,0
4.469,1
4.471,0
4.473,0
4.475,1
4.477,1
4.479,0
4.481,0
4.483,1
4.485,0
4.487,0
4.489,0
4.491,0
4.493,1
4.495,0
4.497,0
4.499,2
4.501,0
4.503,0
4.505,0
4.507,0
4.509,0
4.511,0
4.513,0
4.515,0
4.517,3
4.519,0
4.521,1
4.523,0
4.525,1
4.527,0
4.529,1
4.531,0
4.533,0
4.535,0
4.537,2
4.539,0
4.541,1
4.543,0
4.545,0
4.547,1
4.549,0
4.551,0
4.553,0
4.555,0
4.557,0
4.559,0
4.561,0
4.563,0
4.565,1
4.567,1
4.569,0
4.571,0
4.573,0
4.575,0
4.577,1
4.579,0
4.581,0
4.583,0
4.585,0
4.587,2
4.589,0
4.591,0
4.593,1
4.595,0
4.597,1
4.599,0
4.601,0
4.603,1
4.605,2
4.607,2
4.609,0
4.611,0
4.613,1
4.615,2
4.617,0
4.619,0
4.621,0
4.623,0
4.625,0
4.627,2
4.629,1
4.631,1
4.633,0
4.635,0
4.637,1
4.639,0
4.641,0
4.643,0
4.645,1
4.647,1
4.649,4
4.651,0
4.653,1
4.655,0
4.657,0
4.659,0
4.661,1
4.663,1
4.665,0
4.667,0
4.669,1
4.671,1
4.673,0
4.675,0
4.677,0
4.679,0
4.681,1
4.683,0
4.685,0
4.687,0
4.689,1
4.691,4
4.693,0
4.695,0
4.697,0
4.699,0
4.701,0
4.703,0
4.705,1
4.707,0
4.709,0
4.711,1
4.713,0
4.715,0
4.717,0
4.719,1
4.721,1
4.723,0
4.725,0
4.727,1
4.729,0
4.731,0
4.733,2
4.735,0
4.737,0
4.739,0
4.741,0
4.743,0
4.745,0
4.747,0
4.749,0
4.751,0
4.753,1
4.755,1
4.757,1
4.759,0
4.761,1
4.763,0
4.765,0
4.767,2
4.769,0
4.771,0
4.773,0
4.775,0
4.777,0
4.779,0
4.781,0
4.783,0
4.785,1
4.787,0
4.789,0
4.791,1
4.793,0
4.795,0
4.797,0
4.799,3
4.801,0
4.803,0
4.805,2
4.807,1
4.809,2
4.811,1
4.813,0
4.815,0
4.817,0
4.819,1
4.821,0
4.823,0
4.825,1
4.827,0
4.829,0
4.831,0
4.833,0
4.835,1
4.837,0
4.839,0
4.841,0
4.843,1
4.845,1
4.847,2
4.849,0
4.851,0
4.853,0
4.855,0
4.857,1
4.859,0
4.861,0
4.863,0
4.865,1
4.867,1
4.869,0
4.871,1
4.873,1
4.875,2
4.877,0
4.879,0
4.881,0
4.883,0
4.885,0
4.887,0
4.889,0
4.891,1
4.893,0
4.895,1
4.897,0
4.899,0
4.901,0
4.903,1
4.905,1
4.907,1
4.909,0
4.911,3
4.913,0
4.915,0
4.917,0
4.919,0
4.921,0
4.923,0
4.925,0
4.927,0
4.929,0
4.931,1
4.933,1
4.935,1
4.937,2
4.939,0
4.941,0
4.943,0
4.945,0
4.947,0
4.949,0
4.951,0
4.953,1
4.955,1
4.957,0
4.959,0
4.961,0
4.963,1
4.965,0
4.967,1
4.969,0
4.971,0
4.973,2
4.975,2
4.977,0
4.979,0
4.981,0
4.983,0
4.985,0
4.987,1
4.989,0
4.991,1
4.993,0
4.995,0
4.997,0
4.999,0
5.001,0
5.003,0
5.005,1
5.007,0
5.009,0
5.011,2
5.013,0
5.015,0
5.017,0
5.019,0
5.021,0
5.023,0
5.025,1
5.027,1
5.029,0
5.031,0
5.033,0
5.035,0
5.037,1
5.039,0
5.041,0
5.043,0
5.045,0
5.047,1
5.049,0
5.051,0
5.053,0
5.055,0
5.057,0
5.059,0
5.061,0
5.063,0
5.065,0
5.067,1
5.069,0
5.071,0
5.073,0
5.075,1
5.077,0
5.079,0
5.081,0
5.083,0
5.085,0
5.087,0
5.089,0
5.091,0
5.093,2
5.095,0
5.097,1
5.099,2
5.101,0
5.103,0
5.105,1
5.107,0
5.109,0
5.111,0
5.113,0
5.115,1
5.117,0
5.119,0
5.121,0
5.123,0
5.125,1
5.127,0
5.129,0
5.131,0
5.133,0
5.135,0
5.137,0
5.139,0
5.141,0
5.143,0
5.145,0
5.147,0
5.149,1
5.151,1
5.153,1
5.155,0
5.157,0
5.159,1
5.161,0
5.163,0
5.165,0
5.167,1
5.169,0
5.171,0
5.173,2
5.175,2
5.177,0
5.179,0
5.181,0
5.183,1
5.185,0
5.187,0
5.189,1
5.191,0
5.193,0
5.195,1
5.197,1
5.199,0
5.201,0
5.203,0
5.205,2
5.207,2
5.209,0
5.211,0
5.213,0
5.215,0
5.217,0
5.219,0
5.221,0
5.223,0
5.225,1
5.227,0
5.229,0
5.231,1
5.233,0
5.235,0
5.237,1
5.239,0
5.241,0
5.243,0
5.245,0
5.247,0
5.249,0
5.251,0
5.253,0
5.255,0
5.257,0
5.259,2
5.261,1
5.263,0
5.265,0
5.267,1
5.269,0
5.271,1
5.273,0
5.275,1
5.277,2
5.279,1
5.281,0
5.283,0
5.285,0
5.287,0
5.289,0
5.291,0
5.293,0
5.295,0
5.297,0
5.299,2
5.301,0
5.303,0
5.305,1
5.307,0
5.309,0
5.311,0
5.313,0
5.315,0
5.317,0
5.319,1
5.321,0
5.323,0
5.325,0
5.327,0
5.329,1
5.331,0
5.333,0
5.335,1
5.337,0
5.339,0
5.341,0
5.343,1
5.345,2
5.347,0
5.349,0
5.351,0
5.353,1
5.355,0
5.357,0
5.359,0
5.361,0
5.363,2
5.365,0
5.367,0
5.369,0
5.371,0
5.373,0
5.375,0
5.377,0
5.379,1
5.381,1
5.383,0
5.385,0
5.387,1
5.389,0
5.391,0
5.393,0
5.395,0
5.397,0
5.399,0
5.401,0
5.403,1
5.405,0
5.407,1
5.409,0
5.411,0
5.413,1
5.415,0
5.417,1
5.419,1
5.421,0
5.423,0
5.425,0
5.427,0
5.429,0
5.431,2
5.433,0
5.435,1
5.437,2
5.439,1
5.441,1
5.443,0
5.445,1
5.447,0
5.449,0
5.451,0
5.453,0
5.455,0
5.457,0
5.459,3
5.461,0
5.463,0
5.465,0
5.467,1
5.469,1
5.471,2
5.473,0
5.475,1
5.477,0
5.479,0
5.481,2
5.483,0
5.485,1
5.487,0
5.489,1
5.491,0
5.493,1
5.495,0
5.497,0
5.499,0
5.501,2
5.503,0
5.505,0
5.507,0
5.509,0
5.511,1
5.513,0
5.515,1
5.517,0
5.519,1
5.521,1
5.523,0
5.525,0
5.527,0
5.529,2
5.531,2
5.533,2
5.535,2
5.537,1
5.539,0
5.541,0
5.543,1
5.545,1
5.547,0
5.549,2
5.551,1
5.553,0
5.555,1
5.557,2
5.559,0
5.561,0
5.563,0
5.565,0
5.567,0
5.569,0
5.571,0
5.573,1
5.575,1
5.577,1
5.579,0
5.581,0
5.583,0
5.585,1
5.587,1
5.589,0
5.591,3
5.593,1
5.595,1
5.597,0
5.599,0
5.601,1
5.603,0
5.605,1
5.607,0
5.609,0
5.611,1
5.613,1
5.615,0
5.617,0
5.619,1
5.621,2
5.623,0
5.625,1
5.627,0
5.629,1
5.631,0
5.633,0
5.635,0
5.637,1
5.639,0
5.641,0
5.643,2
5.645,0
5.647,0
5.649,0
5.651,2
5.653,0
5.655,2
5.657,2
5.659,1
5.661,1
5.663,2
5.665,2
5.667,0
5.669,1
5.671,1
5.673,0
5.675,0
5.677,1
5.679,2
5.681,0
5.683,0
5.685,0
5.687,3
5.689,1
5.691,1
5.693,0
5.695,0
5.697,2
5.699,2
5.701,1
5.703,1
5.705,1
5.707,1
5.709,0
5.711,1
5.713,4
5.715,1
5.717,1
5.719,0
5.721,0
5.723,1
5.725,1
5.727,1
5.729,4
5.731,1
5.733,0
5.735,0
5.737,1
5.739,0
5.741,1
5.743,1
5.745,1
5.747,2
5.749,1
5.751,1
5.753,1
5.755,2
5.757,1
5.759,1
5.761,0
5.763,0
5.765,0
5.767,2
5.769,0
5.771,0
5.773,1
5.775,2
5.777,1
5.779,1
5.781,2
5.783,2
5.785,2
5.787,1
5.789,3
5.791,2
5.793,2
5.795,0
5.797,0
5.799,2
5.801,1
5.803,1
5.805,1
5.807,0
5.809,2
5.811,3
5.813,2
5.815,1
5.817,5
5.819,2
5.821,0
5.823,1
5.825,2
5.827,3
5.829,3
5.831,1
5.833,1
5.835,1
5.837,1
5.839,1
5.841,1
5.843,0
5.845,1
5.847,2
5.849,0
5.851,1
5.853,0
5.855,0
5.857,0
5.859,0
5.861,0
5.863,0
5.865,2
5.867,0
5.869,0
5.871,1
5.873,0
5.875,0
5.877,1
5.879,0
5.881,2
5.883,1
5.885,0
5.887,0
5.889,0
5.891,0
5.893,2
5.895,1
5.897,1
5.899,0
5.901,0
5.903,0
5.905,1
5.907,0
5.909,0
5.911,0
5.913,0
5.915,0
5.917,1
5.919,0
5.921,0
5.923,0
5.925,0
5.927,0
5.929,0
5.931,0
5.933,0
5.935,0
5.937,0
5.939,0
5.941,2
5.943,0
5.945,1
5.947,0
5.949,1
5.951,1
5.953,1
5.955,1
5.957,1
5.959,0
5.961,0
5.963,1
5.965,0
5.967,1
5.969,1
5.971,1
5.973,0
5.975,0
5.977,0
5.979,0
5.981,0
5.983,1
5.985,0
5.987,0
5.989,0
5.991,1
5.993,0
5.995,0
5.997,1
5.999,0
